# Frequency (Hz)	Imaginary Part (Ohm/m)
1000.0	23477349.21905728
1018.6101701559753	23379192.888477266
1037.566678745186	23279209.851883307
1056.875971184804	23177366.11396561
1076.5446128423157	23073627.046755943
1096.5792912678098	22967957.37785368
1116.9868184678226	22860321.17843282
1137.7741332214914	22750681.851025797
1158.9483034398106	22639002.11707995
1180.5165285688054	22525244.00428238
1202.4861420374123	22409368.83364904
1224.8646137509306	22291337.206373364
1247.6595526308697	22171108.990430284
1270.8787092020582	22061737.57511998
1294.529978227916	21962901.61965538
1318.6214013947485	21862226.31024205
1343.1611700460153	21759677.41619004
1368.1576279674719	21655220.069770403
1393.619274224142	21548818.754359867
1419.5547660501015	21440437.292364698
1445.9729217920194	21330038.832920067
1472.882723907502	21217585.839360207
1500.2933220192183	21103040.076455656
1528.2140360258693	20986362.5974128
1556.654359271062	20867513.730631594
1585.6239617711371	20747102.65538871
1615.132693503091	20650019.59116715
1645.1905877536624	20551129.794601172
1675.807864530767	20450399.642094396
1706.9949340384078	20347794.88430965
1738.7624002162504	20243280.63452371
1771.1210643450886	20136821.356765524
1804.0819287193826	20028380.85373358
1837.6562003881704	19917922.25448842
1871.8552949655793	19805408.001916103
1906.690840512252	19690799.83995845
1942.1746814890264	19574058.800605506
1978.3188827841643	19455145.190646
2015.1357338155585	19348259.98072124
2052.6377527092523	19251753.33011334
2090.8376905557498	19153450.674316455
2129.748535745521	19053318.589368384
2169.3835183851843	18951323.029281378
2209.756114795903	18847429.314465985
2250.880052095462	18741602.119939744
2292.7693128656488	18633805.463316247
2335.438139906479	18524002.69257073
2378.9010410788933	18412156.473578054
2423.1727942376006	18298228.777418606
2468.2684522556924	18182180.867448162
2514.2033481427966	18065302.77931663
2560.9931002584594	17971744.214620568
2608.6536176225477	17876444.509115968
2657.2011053245064	17779371.259876106
2706.652070033241	17680491.460950304
2757.0233256095826	17579771.4921415
2808.3319988231724	17477177.107575063
2860.5955351757416	17372673.424054794
2913.831704832789	17266224.909202285
2968.0586086656026	17157795.36937552
3023.2946844057765	17047347.937362656
3079.5587129142264	16934845.059846733
3136.8698245668766	16820248.484637197
3195.2475057592133	16718563.213702947
3254.711605531848	16626794.779621396
3315.282342319423	16533318.519366633
3376.9803108250912	16438102.65000299
3439.8264890229243	16341114.797108933
3503.8422452906757	16242321.983769458
3569.0493456752292	16141690.619363548
3635.4699612933177	16039186.488143016
3703.126675869927	15934774.73759878
3772.0424934169973	15828419.86661063
3842.240846055061	15720085.713376474
3913.745601980384	15609735.44311693
3986.581073580439	15499316.202866659
4060.7720257003657	15411546.64033681
4136.343684063274	15322143.671313774
4213.321743847289	15231076.897824757
4291.732378422157	15138315.356185563
4371.602248248501	15043827.506472537
4452.958509942655	14947581.221798673
4535.828825510186	14849543.77739015
4620.241371751313	14749681.839459527
4706.224849841281	14647961.453871908
4793.808495089106	14544348.034600182
4883.02208687788	14438806.351965362
4973.895958790063	14331300.520658152
5066.461008921268	14237203.921770241
5160.7487103859075	14152276.099475976
5256.791122018419	14065767.755957844
5354.620899273607	13977649.477446914
5454.271305329836	13887891.30277905
5555.7762223988775	13796462.713207738
5659.170163246242	13703332.62202738
5764.488282925873	13608469.36400351
5871.766390733255	13511840.684606267
5981.040962380945	13413413.72904349
6092.349152400711	13313155.031089762
6205.7288067765	13211030.5017075
6321.218475812449	13109561.879295442
6438.8574272404185	13029426.423573732
6558.685659571435	12947799.63338552
6680.743915695614	12864653.754742628
6805.073696735206	12779960.517150415
6931.717276155407	12693691.12399555
7060.717714137772	12605816.242754824
7192.118872221193	12516305.99502177
7325.96542821523	12425129.946347702
7462.302891391108	12332257.095893664
7601.17761795533	12237655.8658898
7742.636826811269	12141294.090898605
7886.728615614156	12043139.006878281
8033.501977124735	11958441.145076113
8183.00681586739	11881925.980543874
8335.293965098195	11803986.85578017
8490.415204088747	11724597.270642806
8648.423275731726	11643730.23181742
8809.37190447399	11561358.24363949
8973.31581458352	11477453.298745485
9140.310748756232	11391986.868550068
9310.413487069076	11304929.893546097
9483.681866285926	11216252.77342403
9660.174799522645	11125925.357007554
9839.952296278227	11033916.93200182
10023.075482838643	10943189.454064213
10209.606623060476	10871920.491295177
10399.609139541202	10799325.201002175
10593.1476351837	10725378.900004294
10790.287915161836	10650056.445762437
10991.097009294961	10573332.22783058
11195.643194838794	10495180.159147907
11403.99601970033	10415573.667169023
11616.22632608502	10334485.684828894
11832.40627458378	10251888.641339812
12052.609368708414	10167754.452817013
12276.910479883603	10082054.51272986
12505.385872903913	9994759.682175342
12738.113231864783	9920512.034142548
12975.171686575868	9853302.623559948
13216.641839466038	9784842.434410324
13462.60579298911	9715108.189491699
13713.147177539455	9644076.17840946
13968.351179887397	9571722.249514453
14228.30457214352	9498021.801691256
14493.09574126215	9422949.775993498
14762.81471909391	9346480.647123545
15037.553212997384	9268588.414753651
15317.404637020798	9189246.594685525
15602.46414366368	9108428.20984544
15892.828656229764	9029368.657607036
16188.596901781993	8967498.854367811
16489.86944471065	8904477.643562797
16796.74872092653	8840283.597301265
17109.339072690134	8774894.888915805
17427.746784089173	8708289.285541013
17752.08011717636	8640444.140554065
18082.44934877952	8571336.38587466
18418.96680799711	8500942.524121579
18761.746914391195	8429238.620623337
19110.90621689136	8356200.295280137
19466.56343342263	8281802.714274391
19828.83949127071	8206020.581626941
20197.857568198782	8142476.873668924
20573.743134329114	8084768.104456523
20956.623994804308	8025985.365229583
21346.630333242454	7966108.669223391
21743.8947560008	7905117.657716152
22148.55233726359	7842991.593106778
22560.74066496859	7779709.351863904
22980.599887588487	7715249.417343644
23408.272761782944	7649589.872473716
23843.904700937208	7582708.3923014
24287.643824604504	7514582.236402795
24739.64100886812	7445188.241150841
25200.049937640895	7377863.2156126
25669.027154919517	7325274.0377512695
26146.732118010917	7271706.166341587
26633.327251749808	7217141.387730072
27128.978003724646	7161561.149304079
27633.852900531667	7104946.553183666
28148.123605075813	7047278.349796131
28671.964974937695	6988536.931330976
29205.55512182745	6928702.325072978
29749.075472144435	6867754.186611296
30302.71082866393	6805671.792922167
30866.649433372742	6742434.035322777
31441.08303147265	6678019.41229419
32026.206936576502	6624746.971071641
32622.220097116733	6576144.569194649
33229.325163989684	6526637.6683487445
33847.72855945983	6476209.435654192
34477.640547344636	6424842.724968532
35119.275304507275	6372520.071056667
35772.850993678774	6319223.683652478
36438.58983763541	6264935.441410008
37116.71819475767	6209636.8857419295
37807.466635993485	6153309.214543496
38511.070023255685	6095933.275799567
39227.76758927723	6037489.561072743
39957.803018952654	5981264.283415406
40701.42453219439	5937339.586822628
41458.88496832911	5892597.444152215
42230.441872066716	5847022.642593564
43016.35758106799	5800599.686223077
43816.89931514194	5753312.790735391
44632.33926710397	5705145.878076537
45462.95469532399	5656082.570977212
46309.02801799736	5606106.187384357
47170.84690917023	5555199.734789051
48048.704396551344	5503345.904448911
48942.89896114532	5450527.065502907
49853.73463873894	5396725.258976677
50781.5211232767	5352811.98778708
51726.57387216024	5312516.284830743
52689.21421350677	5271470.671985847
53669.76945540476	5229661.193301747
54668.57299720181	5187073.633105202
55685.96444286408	5143693.5111668715
56722.28971644549	5099506.07777788
57777.90117970507	5054496.308734766
58853.1577519145	5008648.900231081
59948.42503189408	4961948.26365393
61064.07542232036	4914378.520283683
62200.48825634718	4865923.49589504
63358.04992658254	4819702.383030805
64537.15401646702	4783521.840716728
65738.20143409586	4746667.972353853
66961.60054853215	4709128.247229842
68207.76732865692	4670889.901433655
69477.1254846024	4631939.933515725
70770.10661181889	4592265.100067272
72087.15033782135	4551851.911217434
73428.70447166759	4510686.626046552
74795.22515621828	4468755.24791412
76187.17702322999	4426043.519699772
77605.0333513357	4382536.918955699
79049.2762269642	4338220.6529688705
80520.39670825469	4302499.281916417
82018.8949920221	4269496.910446101
83545.28058382872	4235880.359227176
85100.07247122246	4201638.198270008
86683.79930019773	4166758.784870919
88296.99955494082	4131230.259653534
89940.22174092053	4095040.5425364575
91614.0245713852	4058177.3286259393
93318.9771573324	4020628.0840320494
95055.65920101192	3982380.0416070414
96824.66119303115	3943420.19660437
98626.5846131283	3903735.3022569437
100462.04213468132	3866200.8615868557
102331.65783302448	3836715.224797428
104236.06739764012	3806680.855290192
106175.9183482999	3776087.541055898
108151.87025522892	3744924.8800380677
110164.59496336569	3713182.2765961853
112214.77682079801	3680848.9379030545
114303.11291144785	3647913.870275134
116430.31329208757	3614365.875434559
118597.10123376705	3580193.546701608
120804.21346773289	3545385.265116311
123052.40043592616	3509929.195487877
125342.42654613995	3473813.2823705957
127675.07043192645	3445046.0363650033
130051.12521734099	3418264.825701308
132471.39878661174	3390985.2121501816
134936.71405883064	3363197.9203490796
137447.90926775365	3334893.5023193858
140005.8382468096	3306062.334253992
142611.37071941295	3276694.6132451044
145265.39259467812	3246780.3539511496
147968.80626863963	3216309.3852016446
150722.53093107554	3185271.3465388953
153527.5028780421	3153655.6846953235
156384.67583022476	3121451.650005244
159295.0212572123	3091250.1410123226
162259.5287078087	3067409.5693952055
165279.2061464897	3043125.3206836735
168355.08029612005	3018389.1379715186
171488.19698705408	2993192.6106900736
174679.62151272455	2967527.171748584
177930.43899185772	2941384.0946212676
181241.75473742394	2914754.490380207
184614.69463245454	2887629.304673039
188050.40551285836	2859999.3146443437
191550.0555573528	2831855.125799806
195114.83468466165	2803187.1688119727
198745.9549580986	2773985.6962665697
202444.65099768018	2750988.608857139
206212.18039991445	2729401.233163039
210049.8241653915	2707412.1127340524
213958.88713434213	2685013.771032302
217940.6984302958	2662198.592380267
221996.61191199525	2638958.819371386
226128.00663372793	2615286.550232416
230336.2873142131	2591173.736136794
234622.88481422624	2566612.178467915
238989.25662310526	2541593.526031519
243436.8873543108	2516109.2722162153
247967.289250216	2490150.752101101
252582.00269627848	2466011.2335430486
257282.59674479323	2446843.8094086163
262070.66964838552	2427319.6762495884
266947.8494034318	2407432.1956503284
271915.7943036019	2387174.6056531356
276976.1935036891	2366540.018459149
282130.76759394706	2345521.418086385
287381.2691851069	2324111.6579842386
292729.4835042813	2302303.4586036
298177.22900196735	2280089.4049216853
303726.3579703311	2257461.9439209
309378.75717301364	2234413.382020692
315136.34848664823	2210935.8824616675
321001.08955431683	2192647.397065
326974.97445117676	2175328.865809653
333060.03436245886	2157688.033740793
339258.33827409917	2139718.9027854386
345571.9936762143	2121415.3632454486
352003.1472796675	2102771.1917201667
358553.9857459817	2083780.0489903775
365226.7364308175	2064435.477862933
372023.6681413066	2044730.9009752127
378947.09190746717	2024659.618558757
385999.36176797637	2004214.8061612875
393182.87557057705	1983389.5123262894
400500.07578736113	1964185.7619208714
407953.45034524484	1948836.0553578506
415545.53347188793	1933200.6881438475
423278.90655735444	1917274.3440855439
431156.19903182285	1901051.6080543487
439180.0892596086	1884526.964145219
447353.3054498463	1867694.7938011745
455678.6265841068	1850549.3739029302
464158.8833612772	1833084.8748229882
472796.9591600391	1815295.3584434758
481595.79101923504	1797174.7761371501
490558.37063650455	1778716.9667107777
499687.7453854889	1759915.6543102718
508987.0193519675	1745424.133382836
518459.3543892913	1731575.4068388396
528107.971193433	1717468.9531374173
537936.1503980698	1703099.975932314
547947.2336900292	1688463.589616454
558144.6249454955	1673554.8176607927
568531.7913873753	1658368.5909222146
579112.2647641759	1642899.745920007
589889.6425508494	1627143.023080192
600867.5891719692	1611093.0649472252
612049.837247669	1594744.4143624117
623440.1888627863	1578091.5126083898
635042.5168595961	1562863.552980447
646860.7661546321	1550603.9277070393
658898.9550799957	1538116.1487212426
671161.1767496272	1525395.9700436532
683651.6004510238	1512439.0666764565
696374.4730628222	1499241.033132903
709334.1204987989	1485797.381939381
722534.9491787221	1472103.5421096282
735981.4475265755	1458154.8575905568
749678.1874966878	1443946.5856791304
763629.8261282243	1429473.8954098125
777841.1071286482	1414731.8659119671
792316.8624866261	1399715.484736722
807062.0141149492	1388260.6625818931
822081.575524054	1377210.6655133453
837380.6535266489	1365955.0261191314
852964.4499741016	1354489.9173605754
868838.2635251193	1342811.440977165
885007.4914473438	1330915.6261610992
901477.6314524917	1318798.4282071614
918254.2835656281	1306455.727137487
935343.1520292377	1293883.3263007223
952750.0472427299	1281076.950945115
970480.8877380306	1268032.2467650587
988541.7021919573	1254744.7784205778
1006938.6314760271	1242695.6872679112
1025677.9307444209	1232921.4021598678
1044765.9715608053	1222965.2159428096
1064209.2440647245	1212823.7434061477
1084014.359178331	1202493.536339947
1104188.0508541602	1191971.0823624982
1124737.1783647507	1181252.8037260703
1145668.7286348727	1170335.0561004383
1166989.8186171474	1159214.1273337747
1188707.6977119034	1147886.2361904704
1210829.7502320393	1136347.531065481
1233363.4979137746	1124594.0886747362
1256316.6024741214	1112621.91272118
1279696.8682159416	1103582.2419541972
1303512.2446815087	1094778.0100185247
1327770.829355429	1085809.9298284359
1352480.8704178738	1076674.9521400381
1377650.769549055	1067369.9709624865
1403289.084785873	1057891.8225019244
1429404.533431761	1048237.2840857467
1456005.9950206485	1038403.0730668672
1483102.514336103	1028385.8457075766
1510703.3044866556	1018182.1960426369
1538817.7500383465	1007788.6547212222
1567455.410205595	997201.6878272927
1596626.022101425	987681.627656694
1626339.5040481905	979897.8604335395
1656605.9589499151	971969.235977907
1687435.6777273756	963893.0584720534
1718839.1428171454	955666.5819286059
1750827.0317357269	947287.0092568995
1783410.220710006	938751.4913119398
1816599.7883753285	930057.1259256534
1850407.019542302	921200.9569201313
1884843.4090337954	912179.973102486
1919920.6655932867	902991.1072410194
1955650.715865947	893631.2350223319
1992045.7084538713	884097.1739890149
2029118.0180466783	876971.2177545505
2066880.2496290822	869962.8673133522
2105345.242766708	862824.0902779289
2144526.0759716653	855552.4593871731
2184436.0711494284	848145.5022082261
2225088.7981283693	840600.700295843
2266498.079273693	832915.4883360766
2308677.994187172	825087.2532740538
2351642.884494346	817113.3334255074
2395407.358720879	808991.0175717674
2439986.29725955	800717.5440379292
2485394.857429798	792290.0997538465
2531648.478631358	784775.4380942385
2578762.8875937983	778581.465130964
2626754.1037238385	772272.2212769006
2675638.4445520453	765845.5613211576
2725432.531281028	759299.3001301037
2776153.2944368036	752631.211904398
2827817.979625338	745839.0294221984
2880444.1533962977	738920.4432682734
2934049.709215787	731873.1010487858
2988652.873550383	724694.606591446
3044272.2120643063	717382.5191307904
3100926.6359319235	709934.3524782985
3158635.408267819	702347.5741770522
3217418.1506763715	696734.312560252
3277294.849923382	691158.8717354202
3338285.8647317644	685479.6710081426
3400411.9327037027	679694.7793889823
3463694.1773717343	673802.2299524539
3528154.1153808828	667800.0191682598
3593813.6638046256	661686.1062200599
3660695.147596906	655458.4123115743
3728821.30718283	649114.819959774
3798215.306190736	642653.1722749053
3868900.7393279755	636071.2722271336
3940901.6404034477	629366.8818995235
4014242.490499326	623438.9635398865
4088948.226294856	618512.4476981921
4165044.248545185	613494.2485584063
4242556.430717777	608382.6598787531
4321511.127789762	603175.9436640047
4401935.1852088785	597872.3295745447
4483855.948021181	592470.0143244396
4567301.270168747	586967.1610682926
4652299.523960189	581361.8987767063
4738879.609717651	575652.3216001043
4827070.965603188	569836.4882207266
4916903.577628021	563912.4211925612
5008407.989848212	557878.1062689848
5101615.314749833	553458.643476609
5196557.243827657	549024.8478104585
5293266.058360566	544508.5384525236
5391774.640387494	539908.1798089615
5492116.483887789	535222.2077082632
5594325.706169377	530449.0288694251
5698437.0594691355	525587.0203602116
5804485.942768984	520634.5290453411
5912508.413831869	515589.871024406
6022541.201461928	510451.3310593216
6134621.717992506	505217.16199113405
6248788.072006888	499885.5841459623
6365079.081295578	495211.3778983703
6483534.286054714	491294.1642540898
6604193.962330305	487304.0505973508
6727099.135712336	483239.6802465185
6852291.595284057	479099.6712718806
6979813.907830667	474882.61602577684
7109709.432312423	470587.080663987
7242022.334607315	466211.6046582021
7376797.60252773	461754.70029943663
7514081.061116962	457214.85219218576
7653919.388230155	452590.51673917595
7796360.130405221	447880.12161652854
7941451.71902934	443082.06523914577
8089243.486805938	439603.7405375251
8239785.684528512	436078.6843491992
8393129.498166373	432488.02626539895
8549327.066268368	428830.54542368767
8708431.497690724	425104.9982411693
8870496.889654402	421310.11799166066
9035578.34613892	417444.6143749872
9203731.99661823	413507.1730782685
9375015.01514529	409496.4553290386
9549485.639791967	405411.0974400486
9727203.192450536	401249.7103455963
9908228.099003786	397010.879129231
10092621.909870483	393326.33155411325
10280447.320933098	390212.24746543245
10471768.194855202	387040.2097419815
10666649.582795387	383809.1398567559
10865157.746525371	380517.93921118055
11067360.180959744	377165.48876157287
11273325.63710487	373750.64863865904
11483124.14543511	370272.2577600024
11696827.039703846	366729.1334352249
11914506.981197748	363120.0709638798
12136237.983442418	359443.8432258387
12362095.437367693	355699.20026406087
12592156.13694151	351898.9166681201
12826498.3052806	349147.9734445872
13065201.621247198	346345.83469957527
13308347.24654076	343491.54767571745
13556017.853293689	340584.14188467205
13808297.652180923	337622.6287771428
14065272.421052363	334606.00140676333
14327029.534098294	331533.234087724
14593657.991557576	328403.28204602713
14865248.449978571	325215.08106425457
15141893.25304352	321967.54711971985
15423686.462966273	318659.57601589017
15710723.892474487	315290.04300694686
16003103.137387017	312386.23421461857
16300923.609797413	309910.9178025105
16604286.571875297	307389.5353307833
16913295.17029647	304821.22950222914
17228054.471313924	302205.1270651928
17548671.49648152	299540.3385166574
17875255.259042352	296825.95779980463
18207916.800994623	294061.06199594296
18546769.230846975	291244.7110107078
18891927.762076646	288375.94725441845
19243509.75230332	285453.7953164872
19601634.743191857	282477.26163376967
19966424.501097932	279478.82861099526
20338003.0584698	277292.25608105405
20716496.75602067	275064.9910642722
21102034.285685964	272796.2762665454
21494746.734379806	270485.3403003977
21894767.628566206	268131.3974227005
