Frequency [GHz]	Zx real [Ohm/m]	Zy real [Ohm/m]
1.000000000000000166e-10	5.486362743042759860e+01	7.952047369965583812e+01
1.032794731918951654e-10	5.623220173086011897e+01	8.159905795992283117e+01
1.066664958279539403e-10	5.764565805858650549e+01	8.374580883377626606e+01
1.101645949633656381e-10	5.910546830765980530e+01	8.596296182703446220e+01
1.137774133221491146e-10	6.061315264250401214e+01	8.825282575832990517e+01
1.175087130904807540e-10	6.217028108092784322e+01	9.061778516338303291e+01
1.213623798344240958e-10	6.377847512905317018e+01	9.306030277812409679e+01
1.253424265461399975e-10	6.543940946986039364e+01	9.558292210324789551e+01
1.294529978227915867e-10	6.715481370710938336e+01	9.818827005287270993e+01
1.336983741824946476e-10	6.892647416645159808e+01	1.008790596900610410e+02
1.380829765218092491e-10	7.075623575560932466e+01	1.036580930520512709e+02
1.426113707194128486e-10	7.264600388555908239e+01	1.065282640681417803e+02
1.472882723907502473e-10	7.459774645471952681e+01	1.094925615732665420e+02
1.521185517986104510e-10	7.661349589821040240e+01	1.125540724203998906e+02
1.571072389247450498e-10	7.869535130431633263e+01	1.157159846950319348e+02
1.622595287078087593e-10	8.084548060035950812e+01	1.189815910350617543e+02
1.675807864530767868e-10	8.306612281025752509e+01	1.223542920595657222e+02
1.730765534195724819e-10	8.535959038611703420e+01	1.258375999100110221e+02
1.787525525904235329e-10	8.772827161629169268e+01	1.294351419076029117e+02
1.846146946324547531e-10	9.017463311241137092e+01	1.331506643305729369e+02
1.906690840512252406e-10	9.270122237797312437e+01	1.369880363153431801e+02
1.969220255479172543e-10	9.531067046116828578e+01	1.409512538856272386e+02
2.033800305846981002e-10	9.800569469470823947e+01	1.450444441136651790e+02
2.100498241653915480e-10	1.007891015255022609e+02	1.492718694179249894e+02
2.169383518385184289e-10	1.036637894371335022e+02	1.536379320017453267e+02
2.240527869300018610e-10	1.066327519681773595e+02	1.581471784375434595e+02
2.314005380130653023e-10	1.096990808295042257e+02	1.628043044013600706e+02
2.389892566231049743e-10	1.128659691238136418e+02	1.676141595626728247e+02
2.468268452255692806e-10	1.161367146707521840e+02	1.725817526345698525e+02
2.549214654451423314e-10	1.195147234410776775e+02	1.777122565895421076e+02
2.632815465648021228e-10	1.230035131034459113e+02	1.830110140463268920e+02
2.719157943036017723e-10	1.266067166875130567e+02	1.884835428334104108e+02
2.808331998823172083e-10	1.303280863671691634e+02	1.941355417349850825e+02
2.900430493863991314e-10	1.341714973678408569e+02	1.999728964253430945e+02
2.995549334359813486e-10	1.381409520019339254e+02	2.060016855978872741e+02
3.093787571730138678e-10	1.422405838366165653e+02	2.122281872951409696e+02
3.195247505759212065e-10	1.464746619982839491e+02	2.186588854463488474e+02
3.300034791125284578e-10	1.508475956181871140e+02	2.253004766194773936e+02
3.408258547423451742e-10	1.553639384238544210e+02	2.321598769946439802e+02
3.520031472796679687e-10	1.600283934810876758e+02	2.392442295662388858e+02
3.635469961293320139e-10	1.648458180914708748e+02	2.465609115812385710e+02
3.754694224073336536e-10	1.698212288504913658e+02	2.541175422214564321e+02
3.877828414589456106e-10	1.749598068715405077e+02	2.619219905377306645e+02
4.005000757873611052e-10	1.802669031812346248e+02	2.699823836443124492e+02
4.136343684063274911e-10	1.857480442916732670e+02	2.783071151819860347e+02
4.271993966306778827e-10	1.914089379554386880e+02	2.869048540587348270e+02
4.412092863191189219e-10	1.972554791093289452e+02	2.957845534770557379e+02
4.556786265841064474e-10	2.032937560130142174e+02	3.049554602573214197e+02
4.706224849841281415e-10	2.095300565890081259e+02	3.144271244668993859e+02
4.860564232142136024e-10	2.159708749705578725e+02	3.242094093650570130e+02
5.019965133110081441e-10	2.226229182642691455e+02	3.343125016740044657e+02
5.184593543892912175e-10	2.294931135345109965e+02	3.447469221867763167e+02
5.354620899273606527e-10	2.365886150168712163e+02	3.555235367229940948e+02
5.530224256192902378e-10	2.439168115681760298e+02	3.666535674439210766e+02
5.711586478126431938e-10	2.514853343608301941e+02	3.781486045385904617e+02
5.898896425508497150e-10	2.593020648294919397e+02	3.900206182931779040e+02
6.092349152400710261e-10	2.673751428783561437e+02	4.022819715561852263e+02
6.292146109610343618e-10	2.757129753575936775e+02	4.149454326124164254e+02
6.498495354469890483e-10	2.843242448177729216e+02	4.280241884791528264e+02
6.711611767496282870e-10	2.932179185513805919e+02	4.415318586383722277e+02
6.931717276155404727e-10	3.024032579308565118e+02	4.554825092193128171e+02
7.159041085964887260e-10	3.118898280528669034e+02	4.698906676461503480e+02
7.393819919175865964e-10	3.216875076988590649e+02	4.847713377660418246e+02
7.636298261282244400e-10	3.318064996222692571e+02	5.001400154732895658e+02
7.886728615614152294e-10	3.422573411730977000e+02	5.160127048458950867e+02
8.145371766280743462e-10	3.530509152709130944e+02	5.324059348113081569e+02
8.412497049736117954e-10	3.641984617377135578e+02	5.493367763587226591e+02
8.688382635251186617e-10	3.757115890024469422e+02	5.668228603158469241e+02
8.973315814583522479e-10	3.876022861893758886e+02	5.848823957086570999e+02
9.267593301146878953e-10	3.998829356028796269e+02	6.035341887232555109e+02
9.571521538991863169e-10	4.125663256216898844e+02	6.227976622895754417e+02
9.885417021919573871e-10	4.256656640159906146e+02	6.426928763073306072e+02
1.020960662306046580e-09	4.367583817157205885e+02	6.601966166286492808e+02
1.054442793526168950e-09	4.468394351914919866e+02	6.765558299848921706e+02
1.089022962263730067e-09	4.572510941134618179e+02	6.934515393575576354e+02
1.124737178364752061e-09	4.680042005986093727e+02	7.109013389896806530e+02
1.161622632608501755e-09	4.791099523282330210e+02	7.289234001227781619e+02
1.199717735435884489e-09	4.905799142085882636e+02	7.475364899193625661e+02
1.239062156947916503e-09	5.024260304139305049e+02	7.667599910060097272e+02
1.279696868215940940e-09	5.146606368245073782e+02	7.866139216573367321e+02
1.321664183946605026e-09	5.272964738724532481e+02	8.071189566419117227e+02
1.365007806546013663e-09	5.403466998089578510e+02	8.282964487517944008e+02
1.409772871628966933e-09	5.538249044065321414e+02	8.501684510381365953e+02
1.456005995020649598e-09	5.677451231106325622e+02	8.727577397759901032e+02
1.503755321299737753e-09	5.821218516553868767e+02	8.960878381822408301e+02
1.553070573933460069e-09	5.969700611586383729e+02	9.201830409113680389e+02
1.604003107056820079e-09	6.123052137120250791e+02	9.450684393545291186e+02
1.656605958949914401e-09	6.281432784823365409e+02	9.707699477683305531e+02
1.710933907269014249e-09	6.445007483409051474e+02	9.973143302604747760e+02
1.767043526088946692e-09	6.613946570383582184e+02	1.024729228660403351e+03
1.824993244816152494e-09	6.788425969426070878e+02	1.053043191303942649e+03
1.884843409033795523e-09	6.968627373585538862e+02	1.082285702761939774e+03
1.946656343342262358e-09	7.154738434485838070e+02	1.112487214543839400e+03
2.010496416260498236e-09	7.346952957735511518e+02	1.143679176808172997e+03
2.076430107255774870e-09	7.545471104746089850e+02	1.175894071112991924e+03
2.144526075971667793e-09	7.750499601168924073e+02	1.209165444240334182e+03
2.214855233726359314e-09	7.962251952167689524e+02	1.243527943129963205e+03
2.287490817355702788e-09	8.180948664750671924e+02	1.279017350958743236e+03
2.362508465477946229e-09	8.406817477394364460e+02	1.315670624403230022e+03
2.439986297259550245e-09	8.640093597197563895e+02	1.353525932124281326e+03
2.520004993764092080e-09	8.881019944812799167e+02	1.392622694513753686e+03
2.602647881969005809e-09	9.129847407410290998e+02	1.433001624744687660e+03
2.688001021537606561e-09	9.386835099937737823e+02	1.474704771167719173e+03
2.776153294436799262e-09	9.652250634948088646e+02	1.517775561097870423e+03
2.867196497493770032e-09	9.926370401276238908e+02	1.562258846037319472e+03
2.961225437988034610e-09	1.020947985185479752e+03	1.608200948381230774e+03
3.058338032378433485e-09	1.050187380096880815e+03	1.655649709655305060e+03
3.158635408267817403e-09	1.080385673125873154e+03	1.704654540335247930e+03
3.262222009711669644e-09	1.111574311079161816e+03	1.755266471300073817e+03
3.369205705980266915e-09	1.143785772053045093e+03	1.807538206972790704e+03
3.479697903887691433e-09	1.177053599254284563e+03	1.861524180203832884e+03
3.593813663804627762e-09	1.211412435930115635e+03	1.917280608954372155e+03
3.711671819475765297e-09	1.246898061443776896e+03	1.974865554838542039e+03
3.833395101766601886e-09	1.283547428533135644e+03	2.034338983585551887e+03
3.959110266468459240e-09	1.321398701791188387e+03	2.095762827484619265e+03
4.088948226294862618e-09	1.360491297408530500e+03	2.159201049877789501e+03
4.223044187206674123e-09	1.400865924219158842e+03	2.224719711767757417e+03
4.361537789208003199e-09	1.442564626092369508e+03	2.292387040610095028e+03
4.504573251759458750e-09	1.485630825714880984e+03	2.362273501361490162e+03
4.652299523960189308e-09	1.530109369808780457e+03	2.434451869857990459e+03
4.804870439655131104e-09	1.576046575832384860e+03	2.508997308599681674e+03
4.962444877628916452e-09	1.623490280212638481e+03	2.585987445020686664e+03
5.125186927053329472e-09	1.672489888159284192e+03	2.665502452326021285e+03
5.293266058360561204e-09	1.723096425112675206e+03	2.747625132979469072e+03
5.466857299720180771e-09	1.775362589878797962e+03	2.832441004929411520e+03
5.646141419303669251e-09	1.829342809506858657e+03	2.920038390662425627e+03
5.831305113526221869e-09	1.885093295966546748e+03	3.010508509177354426e+03
6.022541201461928965e-09	1.942672104684032774e+03	3.103945570975656665e+03
6.220048825634711276e-09	2.002139194997619370e+03	3.200446876166927268e+03
6.424033659394191079e-09	2.063556492596041153e+03	3.300112915791774412e+03
6.634708121092347870e-09	2.126987954004390303e+03	3.403047476467543675e+03
6.852291595284060743e-09	2.192499633184852428e+03	3.509357748465868553e+03
7.077010661181889919e-09	2.260159750321598949e+03	3.619154437334610975e+03
7.309099328602911004e-09	2.330038762861449413e+03	3.732551879180390642e+03
7.548799281653435948e-09	2.402209438884306110e+03	3.849668159731799278e+03
7.796360130405233414e-09	2.476746932879741053e+03	3.970625237307233874e+03
8.052039670825474778e-09	2.553728864008666278e+03	4.095549069815454914e+03
8.316104153230961616e-09	2.633235396931569085e+03	4.224569745921073263e+03
8.588828559546249041e-09	2.715349325287482770e+03	4.357821620511575020e+03
8.870496889654407999e-09	2.800156157910642378e+03	4.495443454606972409e+03
9.161402457138517586e-09	2.887744207874572112e+03	4.637578559857719483e+03
9.461848194721997291e-09	2.978204684456372433e+03	4.784374947781437186e+03
9.772146969725725887e-09	3.071631788116935240e+03	4.935985483893788114e+03
1.009262190987047331e-08	3.164166949451933306e+03	5.087524794187356747e+03
1.042360673976401127e-08	3.249686085851327334e+03	5.231220353132938726e+03
1.076544612842315905e-08	3.338009799402881981e+03	5.379628369412089341e+03
1.111849604819270880e-08	3.429230065462443690e+03	5.532903386799733198e+03
1.148312414543511117e-08	3.523441875693004476e+03	5.691205017292479170e+03
1.185971012337669343e-08	3.620743336983675363e+03	5.854698107319566589e+03
1.224864613750930795e-08	3.721235773612695994e+03	6.023552909404693310e+03
1.265033720395903769e-08	3.824340673193127714e+03	6.197059050518799268e+03
1.306520162124721228e-08	3.926892548620048728e+03	6.371151594287852276e+03
1.349367140588306343e-08	4.032807585309380556e+03	6.550953456358898620e+03
1.393619274224142065e-08	4.142196077233126744e+03	6.736651872295093199e+03
1.439322644719406651e-08	4.255171935424529693e+03	6.928440217999689594e+03
1.486524844997857277e-08	4.371852806598635652e+03	7.126518211086853626e+03
1.535275028780422776e-08	4.492360195662963633e+03	7.331092118856348861e+03
1.585623961771137302e-08	4.616738466795675777e+03	7.542268982203343512e+03
1.637624074521687477e-08	4.739506767226945158e+03	7.752938722597201377e+03
1.691329517029648562e-08	4.866301221159007582e+03	7.970517320650717920e+03
1.746796215127245689e-08	4.997253865216578561e+03	8.195231350498694155e+03
1.804081928719382751e-08	5.132501066130094841e+03	8.427314816713962500e+03
1.863246311931559514e-08	5.272183662740358159e+03	8.667009397986579643e+03
1.924350975230330612e-08	5.416447112660200219e+03	8.914564698794460128e+03
1.987459549580983990e-08	5.565441643745869442e+03	9.170238509327456995e+03
2.052637752709252173e-08	5.713005572831303652e+03	9.425978432963305750e+03
2.119953457536071000e-08	5.864521591948499008e+03	9.688936886720583061e+03
2.189476762856620985e-08	6.021006538294070197e+03	9.960518992474651895e+03
2.261280066337277307e-08	6.182623366504395563e+03	1.024100756058090883e+04
2.335438139906479724e-08	6.349540375269475589e+03	1.053069467608455307e+04
2.412028207618007283e-08	6.521931382589713394e+03	1.082988200288150438e+04
2.491130026067788373e-08	6.699975906780256082e+03	1.113888109785430424e+04
2.572825967447932303e-08	6.877211937384202429e+03	1.144918246927406653e+04
2.657201105324503850e-08	7.057921970542599411e+03	1.176655345804880017e+04
2.744343303228365032e-08	7.244558340793497337e+03	1.209433254331926037e+04
2.834343306151309448e-08	7.437315400773093643e+03	1.243286105581979973e+04
2.927294835042816131e-08	7.636393876860205637e+03	1.278249152013471212e+04
3.023294684405776334e-08	7.842001078201429664e+03	1.314358802179753184e+04
3.122442823092858392e-08	8.054351112591250057e+03	1.351652658642926872e+04
3.224842498408442807e-08	8.266910491073746016e+03	1.389263405043016428e+04
3.330600343624588813e-08	8.481999014531269495e+03	1.427511720858271474e+04
3.439826489022924478e-08	8.704141308454423779e+03	1.467014379937039121e+04
3.552634676578139226e-08	8.933568699354647833e+03	1.507812518130381068e+04
3.669142378402493899e-08	9.170520100034318602e+03	1.549948620328566903e+04
3.789470919074667737e-08	9.415242258377093094e+03	1.593466564702450887e+04
3.913745601980383687e-08	9.667990014297343805e+03	1.638411668395739980e+04
4.042095839796305955e-08	9.922513679229619811e+03	1.683947546294681160e+04
4.174655289253134782e-08	1.017796326049214258e+04	1.729970410536208510e+04
4.311561990318228626e-08	1.044179024229098468e+04	1.777502582272680593e+04
4.452958509942655287e-08	1.071426935923089513e+04	1.826593558838773970e+04
4.598992090522439315e-08	1.099568435576436787e+04	1.877294460820992390e+04
4.749814803228499868e-08	1.128632828166712170e+04	1.929658085291766474e+04
4.905583706365045989e-08	1.158650379720373348e+04	1.983738960789364137e+04
5.066461008921269181e-08	1.189077165765501377e+04	2.038804079330866807e+04
5.232614239486661694e-08	1.219345133545927638e+04	2.094087761768586279e+04
5.404216420705915059e-08	1.250605731215444393e+04	2.151184457751343507e+04
5.581446249454960394e-08	1.282891511805159098e+04	2.210153624572313129e+04
5.764488282925879445e-08	1.316236095914108955e+04	2.271056669410662289e+04
5.953533130814369715e-08	1.350674206719859285e+04	2.333957013277531223e+04
6.148777653810024108e-08	1.386241706137279834e+04	2.398920157059124176e+04
6.350425168595962148e-08	1.422551291473739730e+04	2.465423734479053019e+04
6.558685659571428548e-08	1.458326624763559994e+04	2.531709769221150782e+04
6.773775997517751128e-08	1.495275200517931989e+04	2.600169636702588105e+04
6.995920165435375620e-08	1.533435494908954934e+04	2.670874627185284044e+04
7.225349491787214948e-08	1.572847245924479648e+04	2.743898368876192399e+04
7.462302891391107044e-08	1.613551494749014455e+04	2.819316904599571717e+04
7.707027114212294845e-08	1.655590628501712490e+04	2.897208770983720024e+04
7.959777002314985573e-08	1.698839788404642968e+04	2.977417194071209087e+04
8.220815755240541849e-08	1.741012683775342157e+04	3.056737012872025298e+04
8.490415204088747078e-08	1.784568627943968750e+04	3.138658103866273450e+04
8.768856094587425811e-08	1.829552977625082349e+04	3.223265775078186198e+04
9.056428379445295063e-08	1.876012576994538176e+04	3.310648132185783470e+04
9.353431520292386860e-08	1.923995806470375464e+04	3.400896170269167487e+04
9.660174799522647250e-08	1.973552633093478289e+04	3.494103868567707832e+04
9.976977642363202159e-08	2.024734662560439756e+04	3.590368288344729808e+04
1.030416994950587396e-07	2.074539873253713813e+04	3.685410845810480532e+04
1.064209244064724761e-07	2.125739594072750333e+04	3.783227999646135868e+04
1.099109700929497372e-07	2.178618396010369906e+04	3.884253040818902082e+04
1.135154708920999096e-07	2.233231344081729185e+04	3.988591171134030446e+04
1.172381803286598596e-07	2.289635309144392158e+04	4.096351042461767793e+04
1.210829750232039531e-07	2.347889027120450919e+04	4.207644869881319755e+04
1.250538587290391570e-07	2.408053160160819243e+04	4.322588548535334121e+04
1.291549665014884007e-07	2.466976957564432814e+04	4.436615777550492930e+04
1.333905690039058854e-07	2.526979974339607361e+04	4.553138348646232771e+04
1.377650769549053468e-07	2.588950773964251130e+04	4.673482246223563561e+04
1.422830457214352017e-07	2.652953889349388919e+04	4.797772789660025592e+04
1.469491800624817218e-07	2.719055969745561742e+04	4.926139408148550865e+04
1.517683390283405561e-07	2.787325850147610254e+04	5.058715775477745774e+04
1.567455410205594968e-07	2.857834622975582897e+04	5.195639949232289655e+04
1.618859690178197646e-07	2.927382119174472609e+04	5.332189458687884326e+04
1.671949759731990056e-07	2.997474689228294665e+04	5.470637532890579314e+04
1.726780903884356132e-07	3.069865926326539193e+04	5.613625974571442202e+04
1.783410220710008120e-07	3.144631214638701931e+04	5.761303683864736377e+04
1.841896680799711039e-07	3.221848410537905875e+04	5.913824444044710253e+04
1.902301188668944219e-07	3.301597923676157370e+04	6.071347081666861050e+04
1.964686646180446931e-07	3.383962800718446670e+04	6.234035631961001491e+04
2.029118018046678038e-07	3.465843680820643931e+04	6.397227335196658532e+04
2.095662399480432992e-07	3.547438941088006686e+04	6.561263731112697860e+04
2.164389086064020114e-07	3.631710096041695215e+04	6.730679656657754094e+04
2.235369645909794139e-07	3.718744900930590666e+04	6.905651532063861669e+04
2.308677994187169850e-07	3.808633988913438225e+04	7.086361563217274670e+04
2.384390470093720426e-07	3.901470965439119755e+04	7.272997931397422508e+04
2.462585916350547006e-07	3.997352505722126807e+04	7.465754989238367125e+04
2.543345761304648365e-07	4.093496827696889522e+04	7.660362924852030119e+04
2.626754103723835758e-07	4.188130227387221385e+04	7.854117354927017004e+04
2.712897800372467241e-07	4.285867104050979833e+04	8.054225909594430414e+04
2.801866556459195443e-07	4.386809235383518535e+04	8.260896970666843117e+04
2.893753019050950594e-07	4.491061736852436297e+04	8.474345753782532120e+04
2.988652873550382326e-07	4.598733171158906043e+04	8.694794532518924098e+04
3.086664943337274455e-07	4.709935661288790288e+04	8.922472869855845056e+04
3.187891292677645596e-07	4.822507209147918184e+04	9.153997759764113289e+04
3.292437333007768907e-07	4.931825820014571946e+04	9.382078271020739339e+04
3.400411932703706463e-07	5.044729505418350163e+04	9.617638621499964211e+04
3.511927530450727317e-07	5.161335836917605775e+04	9.860924110523887794e+04
3.627100252330649086e-07	5.281766241798437841e+04	1.011218808194013254e+05
3.746050032748993774e-07	5.406146129522222327e+04	1.037169218793985638e+05
3.868900739327976195e-07	5.534605022320017451e+04	1.063970666152770573e+05
3.995780301895269929e-07	5.666010741283229436e+04	1.091444572985056002e+05
4.126820845702951630e-07	5.791754856873844255e+04	1.118193122898305010e+05
4.262158829015325345e-07	5.921622717025643215e+04	1.145818884335180774e+05
4.401935185208874400e-07	6.055749558836004144e+04	1.174350625212434679e+05
4.546295469532399562e-07	6.194275054466671281e+04	1.203818056882938981e+05
4.695390010680058238e-07	6.337343456590486312e+04	1.234251865075417736e+05
4.849374067335232931e-07	6.485103748608024762e+04	1.265683741848841455e+05
5.008407989848212921e-07	6.637709799790549732e+04	1.298146418594760326e+05
5.172657387216018967e-07	6.781972703056053433e+04	1.329435267007985385e+05
