# Frequency (Hz)	Real Part (Ohm)
1000.0	0.0010379164901
1018.6101701559753	0.0010521103976334329
1037.566678745186	0.0010665684562012419
1056.875971184804	0.001081295581699122
1076.5446128423157	0.0010962967815084266
1096.5792912678098	0.001111577156198726
1116.9868184678226	0.0011271419012620586
1137.7741332214914	0.0011429963088794549
1158.9483034398106	0.0011591457697203323
1180.5165285688054	0.0011755957747753866
1202.4861420374123	0.0011923519172235815
1224.8646137509306	0.001209419894333895
1247.6595526308697	0.0012268055094024506
1270.8787092020582	0.001243910560069544
1294.529978227916	0.0012607539718586475
1318.6214013947485	0.0012779108424071524
1343.1611700460153	0.0012953870052359092
1368.1576279674719	0.0013131884024285838
1393.619274224142	0.0013313210866520268
1419.5547660501015	0.0013497912232142543
1445.9729217920194	0.0013686050921607074
1472.882723907502	0.0013877690904095465
1500.2933220192183	0.0014072897339266663
1528.2140360258693	0.0014271736599411927
1556.654359271062	0.0014474276292022195
1585.6239617711371	0.0014680231432252456
1615.132693503091	0.0014876091303156172
1645.1905877536624	0.0015075596159584124
1675.807864530767	0.0015278813835337144
1706.9949340384078	0.001548581342661464
1738.7624002162504	0.0015696665315508018
1771.1210643450886	0.0015911441193931421
1804.0819287193826	0.001613021408799767
1837.6562003881704	0.0016353058382848006
1871.8552949655793	0.0016580049847943815
1906.690840512252	0.0016811265662828988
1942.1746814890264	0.0017046784443371947
1978.3188827841643	0.0017286686268495723
2015.1357338155585	0.0017521864881408888
2052.6377527092523	0.001775344119230889
2090.8376905557498	0.0017989327177758828
2129.748535745521	0.001822960304153542
2169.3835183851843	0.001847435048002125
2209.756114795903	0.0018723652709982557
2250.880052095462	0.0018977594496863695
2292.7693128656488	0.00192362621836084
2335.438139906479	0.001949974372001729
2378.9010410788933	0.0019768128692651695
2423.1727942376006	0.002004150835529415
2468.2684522556924	0.0020319975659975546
2514.2033481427966	0.0020602605916225794
2560.9931002584594	0.002087094826828085
2608.6536176225477	0.0021144284517167684
2657.2011053245064	0.0021422707600156116
2706.652070033241	0.00217063121840943
2757.0233256095826	0.002199519469759659
2808.3319988231724	0.002228945336383026
2860.5955351757416	0.002258918823391239
2913.831704832789	0.002289450122092845
2968.0586086656026	0.002320549613458368
3023.2946844057765	0.002352227871649969
3079.5587129142264	0.0023844956676167613
3136.8698245668766	0.002417363972757052
3195.2475057592133	0.0024494677319369966
3254.711605531848	0.002481088633534318
3315.282342319423	0.002513298005490852
3376.9803108250912	0.0025461067993401147
3439.8264890229243	0.0025795261704255235
3503.8422452906757	0.0026135674816933395
3569.0493456752292	0.0026482423075561796
3635.4699612933177	0.0026835624378284567
3703.126675869927	0.002719539881735033
3772.0424934169973	0.002756186871994487
3842.240846055061	0.002793515868978375
3913.745601980384	0.002831539564947883
3986.581073580439	0.00287005332157316
4060.7720257003657	0.0029065756134996406
4136.343684063274	0.002943777591493357
4213.321743847289	0.0029816719046276787
4291.732378422157	0.0030202714373773697
4371.602248248501	0.003059589313999475
4452.958509942655	0.003099638902995691
4535.828825510186	0.0031404338216578023
4620.241371751313	0.003181987940697716
4706.224849841281	0.0032243153889636423
4793.808495089106	0.0032674305582440655
4883.02208687788	0.0033113481081611038
4973.895958790063	0.003356082971154928
5066.461008921268	0.00339961624647439
5160.7487103859075	0.003442518252818557
5256.791122018419	0.003486218672800822
5354.620899273607	0.0035307323650348482
5454.271305329836	0.003576074464655619
5555.7762223988775	0.0036222603884655596
5659.170163246242	0.003669305840176414
5764.488282925873	0.003717226815748672
5871.766390733255	0.0037660396088303725
5981.040962380945	0.0038157608162971116
6092.349152400711	0.0038664073438951646
6205.7288067765	0.003917996411989627
6321.218475812449	0.0039701370904878614
6438.8574272404185	0.004019537787129401
6558.685659571435	0.004069857839141265
6680.743915695614	0.004121114355883324
6805.073696735206	0.004173324765123556
6931.717276155407	0.004226506818963663
7060.717714137772	0.0042806785998749765
7192.118872221193	0.004335858526846707
7325.96542821523	0.004392065361648568
7462.302891391108	0.004449318215210024
7601.17761795533	0.004507636554118177
7742.636826811269	0.004567040207236621
7886.728615614156	0.0046275493724474885
8033.501977124735	0.004686211999733438
8183.00681586739	0.004744068296014166
8335.293965098195	0.0048030013078132735
8490.415204088747	0.0048630310729897664
8648.423275731726	0.004924178002310619
8809.37190447399	0.004986462886390646
8973.31581458352	0.005049906902761545
9140.310748756232	0.00511453162307249
9310.413487069076	0.005180359020424701
9483.681866285926	0.005247411476842562
9660.174799522645	0.005315711790883736
9839.952296278227	0.005385283185390921
10023.075482838643	0.005455436495870677
10209.606623060476	0.005521859365374208
10399.609139541202	0.00558951837578144
10593.1476351837	0.0056584365318849365
10790.287915161836	0.005728637266600355
10991.097009294961	0.0058001444489339015
11195.643194838794	0.005872982392098058
11403.99601970033	0.005947175861778301
11616.22632608502	0.006022750084553758
11832.40627458378	0.00609973075647447
12052.609368708414	0.0061781440517983495
12276.910479883603	0.006258016631890705
12505.385872903913	0.006339375654289368
12738.113231864783	0.006417944931199192
12975.171686575868	0.006495506451248761
13216.641839466038	0.006574511404384012
13462.60579298911	0.006654986653140282
13713.147177539455	0.00673695955996924
13968.351179887397	0.006820457996542469
14228.30457214352	0.00690551035322808
14493.09574126215	0.006992145548743777
14762.81471909391	0.00708039303998953
15037.553212997384	0.007170282832063192
15317.404637020798	0.007261845488462631
15602.46414366368	0.007355112141477596
15892.828656229764	0.007448928439663794
16188.596901781993	0.007537707336627475
16489.86944471065	0.007628138423969898
16796.74872092653	0.007720252449235152
17109.339072690134	0.007814080732184345
17427.746784089173	0.007909655175444666
17752.08011717636	0.008007008275356636
18082.44934877952	0.008106173133023167
18418.96680799711	0.008207183465564366
18761.746914391195	0.008310073617581668
19110.90621689136	0.008414878572835386
19466.56343342263	0.008521633966139577
19828.83949127071	0.008630376095478216
20197.857568198782	0.008734958222233951
20573.743134329114	0.008838307286070561
20956.623994804308	0.00894357969357063
21346.630333242454	0.00905081123848702
21743.8947560008	0.009160038380700378
22148.55233726359	0.009271298258615975
22560.74066496859	0.009384628701791119
22980.599887588487	0.009500068243797602
23408.272761782944	0.009617656135323569
23843.904700937208	0.009737432357519098
24287.643824604504	0.00985943763559033
24739.64100886812	0.009983713452646396
25200.049937640895	0.010108394098557901
25669.027154919517	0.010226316987089598
26146.732118010917	0.010346434440642144
26633.327251749808	0.010468787300444007
27128.978003724646	0.010593417167785849
27633.852900531667	0.01072036641816544
28148.123605075813	0.010849678215695786
28671.964974937695	0.010981396527781328
29205.55512182745	0.011115566140067446
29749.075472144435	0.011252232671667979
30302.71082866393	0.011391442590676199
30866.649433372742	0.011533243229964586
31441.08303147265	0.011677682803278348
32026.206936576502	0.01181598535140134
32622.220097116733	0.01195281320517055
33229.325163989684	0.012092187448580453
33847.72855945983	0.012234155470375605
34477.640547344636	0.012378765541213055
35119.275304507275	0.012526066830075056
35772.850993678774	0.012676109420986997
36438.58983763541	0.012828944330046414
37116.71819475767	0.012984623522769233
37807.466635993485	0.013143199931758352
38511.070023255685	0.013304727474701484
39227.76758927723	0.013469261072703681
39957.803018952654	0.013633865875013133
40701.42453219439	0.013789459912471954
41458.88496832911	0.013947949581443127
42230.441872066716	0.014109388770121814
43016.35758106799	0.014273832369571676
43816.89931514194	0.014441336292388338
44632.33926710397	0.014611957491710414
45462.95469532399	0.014785753980584094
46309.02801799736	0.014962784851688218
47170.84690917023	0.015143110297426474
48048.704396551344	0.015326791630393351
48942.89896114532	0.015513891304221218
49853.73463873894	0.01570447293481515
50781.5211232767	0.01588609261673986
51726.57387216024	0.016065998179499472
52689.21421350677	0.01624925181539403
53669.76945540476	0.016435915832634276
54668.57299720181	0.016626053698997372
55685.96444286408	0.01681973006340657
56722.28971644549	0.01701701077791264
57777.90117970507	0.017217962920084144
58853.1577519145	0.017422654815814655
59948.42503189408	0.017631156062554266
61064.07542232036	0.017843537552973437
62200.48825634718	0.018059871499067313
63358.04992658254	0.01827564436898337
64537.15401646702	0.018479486377089245
65738.20143409586	0.018687121919650915
66961.60054853215	0.018898621594990072
68207.76732865692	0.01911405731527525
69477.1254846024	0.019333502330972595
70770.10661181889	0.01955703125575194
72087.15033782135	0.019784720091856216
73428.70447166759	0.02001664625594301
74795.22515621828	0.0202528886054071
76187.17702322999	0.02049352746519275
77605.0333513357	0.020738644655105137
79049.2762269642	0.020988323517629956
80520.39670825469	0.02122506102062689
82018.8949920221	0.02145988619928417
83545.28058382872	0.021699081514473154
85100.07247122246	0.021942728295178314
86683.79930019773	0.022190909383930355
88296.99955494082	0.022443709164973565
89940.22174092053	0.02270121359295741
91614.0245713852	0.02296351022216192
93318.9771573324	0.023230688236267272
95055.65920101192	0.023502838478677058
96824.66119303115	0.023780053483406074
98626.5846131283	0.024062427506542923
100462.04213468132	0.024343161667564776
102331.65783302448	0.024608243933633665
104236.06739764012	0.024878259425779443
106175.9183482999	0.025153299952178788
108151.87025522892	0.025433459029574248
110164.59496336569	0.02571883191507075
112214.77682079801	0.026009515638524244
114303.11291144785	0.026305609035532782
116430.31329208757	0.026607212781041712
118597.10123376705	0.02691442942357428
120804.21346773289	0.027227363420099078
123052.40043592616	0.027546121171546797
125342.42654613995	0.027870811058987498
127675.07043192645	0.028177058312256354
130051.12521734099	0.028481307773386116
132471.39878661174	0.02879121936875732
134936.71405883064	0.029106898471651696
137447.90926775365	0.029428452416365627
140005.8382468096	0.02975599053470501
142611.37071941295	0.030089624193159286
145265.39259467812	0.030429466830767124
147968.80626863963	0.0307756339976871
150722.53093107554	0.03112824339448587
153527.5028780421	0.03148741491215766
156384.67583022476	0.03185327067288854
159295.0212572123	0.03221577518708916
162259.5287078087	0.03255799257186843
165279.2061464897	0.032906578680408805
168355.08029612005	0.03326165203574306
171488.19698705408	0.03362333336663802
174679.62151272455	0.033991745648643115
177930.43899185772	0.03436701414590389
181241.75473742394	0.0347492664537529
184614.69463245454	0.03513863254209341
188050.40551285836	0.035535244799591
191550.0555573528	0.03593923807868652
195114.83468466165	0.03635074974144787
198745.9549580986	0.03676991970627443
202444.65099768018	0.03716320398404057
206212.18039991445	0.037554633226832265
210049.8241653915	0.03795334703443628
213958.88713434213	0.03835948097384336
217940.6984302958	0.03877317313496896
221996.61191199525	0.0391945641776052
226128.00663372793	0.03962379737924721
230336.2873142131	0.04006101868380833
234622.88481422624	0.04050637675124314
238989.25662310526	0.040960023008093295
243436.8873543108	0.04142211169897396
247967.289250216	0.041892799939019155
252582.00269627848	0.04235756994168658
257282.59674479323	0.042796423728987606
262070.66964838552	0.04324344465994393
266947.8494034318	0.04369878472648856
271915.7943036019	0.0441625987491505
276976.1935036891	0.04463504442969486
282130.76759394706	0.04511628240474361
287381.2691851069	0.045606476300393585
292729.4835042813	0.04610579278785092
298177.22900196735	0.046614401640101624
303726.3579703311	0.047132475789635496
309378.75717301364	0.04766019138724561
315136.34848664823	0.04819772786192127
321001.08955431683	0.048699517698355045
326974.97445117676	0.04919999047787579
333060.03436245886	0.049709777140981785
339258.33827409917	0.05022905102063145
345571.9936762143	0.050757988675539
352003.1472796675	0.051296769950206135
358553.9857459817	0.05184557803607183
365226.7364308175	0.052404599533798384
372023.6681413066	0.05297402451671848
378947.09190746717	0.05355404659546186
385999.36176797637	0.05414486298378474
393182.87557057705	0.05474667456562538
400500.07578736113	0.055338880157794895
407953.45034524484	0.05589849427232473
415545.53347188793	0.056468522900747734
423278.90655735444	0.05704915985893935
431156.19903182285	0.05764060256972186
439180.0892596086	0.05824305212998951
447353.3054498463	0.058856713379084116
455678.6265841068	0.059481794968442574
464158.8833612772	0.06011850943254021
472796.9591600391	0.06076707326115563
481595.79101923504	0.0614277069729785
490558.37063650455	0.062100635190589185
499687.7453854889	0.06278608671683243
508987.0193519675	0.06342294597329746
518459.3543892913	0.0640596436806937
528107.971193433	0.06470819044076243
537936.1503980698	0.06536880676639013
547947.2336900292	0.06604171727424567
558144.6249454955	0.06672715076115199
568531.7913873753	0.06742534028188038
579112.2647641759	0.06813652322839057
589889.6425508494	0.06886094141054737
600867.5891719692	0.06959884113833824
612049.837247669	0.07035047330562119
623440.1888627863	0.07111609347543216
635042.5168595961	0.0718669704962138
646860.7661546321	0.07257748125394077
658898.9550799957	0.07330121473776674
671161.1767496272	0.07403841702487415
683651.6004510238	0.07478933877198417
696374.4730628222	0.07555423530058164
709334.1204987989	0.07633336668372802
722534.9491787221	0.0771269978344887
735981.4475265755	0.07793539859600597
749678.1874966878	0.07875884383324944
763629.8261282243	0.07959761352647207
777841.1071286482	0.08045199286640722
792316.8624866261	0.08132227235123642
807062.0141149492	0.08212739947913775
822081.575524054	0.08293442158821604
837380.6535266489	0.08375646251606383
852964.4499741016	0.08459380176545404
868838.2635251193	0.08544672404075378
885007.4914473438	0.08631551934472656
901477.6314524917	0.087200483077137
918254.2835656281	0.08810191613518946
935343.1520292377	0.0890201250158365
952750.0472427299	0.08995542191999122
970480.8877380306	0.09090812485867852
988541.7021919573	0.09187855776116284
1006938.6314760271	0.09282722829765738
1025677.9307444209	0.093726568301915
1044765.9715608053	0.09464264517668004
1064209.2440647245	0.09557577039796027
1084014.359178331	0.09652626123838538
1104188.0508541602	0.09749444087508251
1124737.1783647507	0.09848063849956008
1145668.7286348727	0.09948518942963677
1166989.8186171474	0.10050843522345237
1188707.6977119034	0.10155072379560229
1210829.7502320393	0.10261240953543155
1233363.4979137746	0.10369385342753118
1256316.6024741214	0.10479542317447707
1279696.8682159416	0.10581057667528374
1303512.2446815087	0.1068309441731307
1327770.829355429	0.10787030088373424
1352480.8704178738	0.10892900019957487
1377650.769549055	0.11000740208982741
1403289.084785873	0.11110587322275396
1429404.533431761	0.1122247870903757
1456005.9950206485	0.11336452413546375
1483102.514336103	0.114525471880894
1510703.3044866556	0.11570802506140898
1538817.7500383465	0.11691258575783174
1567455.410205595	0.11813956353377812
1596626.022101425	0.11933528724454916
1626339.5040481905	0.12047137941355095
1656605.9589499151	0.12162861445113086
1687435.6777273756	0.12280738582967046
1718839.1428171454	0.12400809434413972
1750827.0317357269	0.1252311482483711
1783410.220710006	0.12647696339386985
1816599.7883753285	0.12774596337120953
1850407.019542302	0.12903857965405527
1884843.4090337954	0.13035525174587118
1919920.6655932867	0.13169642732935555
1955650.715865947	0.13306256241865727
1992045.7084538713	0.13445412151442732
2029118.0180466783	0.13573195034491814
2066880.2496290822	0.137020047026952
2105345.242766708	0.13833211540741597
2144526.0759716653	0.13966860160369637
2184436.0711494284	0.14102996003550097
2225088.7981283693	0.1424166535793646
2266498.079273693	0.14382915372603366
2308677.994187172	0.14526794074077773
2351642.884494346	0.14673350382668413
2395407.358720879	0.14822634129099385
2439986.29725955	0.14974696071452945
2485394.857429798	0.15129587912427953
2531648.478631358	0.15280077356233246
2578762.8875937983	0.15423420001805443
2626754.1037238385	0.15569430278402382
2675638.4445520453	0.15718157831091292
2725432.531281028	0.15869653228842623
2776153.2944368036	0.16023967981723974
2827817.979625338	0.16181154558413985
2880444.1533962977	0.16341266404042473
2934049.709215787	0.1650435795836207
2988652.873550383	0.16670484674258568
3044272.2120643063	0.16839703036605366
3100926.6359319235	0.17012070581468916
3158635.408267819	0.1718764591567178
3217418.1506763715	0.17348332461874943
3277294.849923382	0.1751078779779932
3338285.8647317644	0.17676266455168016
3400411.9327037027	0.1784482469850749
3463694.1773717343	0.18016519839436737
3528154.1153808828	0.18191410256153617
3593813.6638046256	0.18369555413284247
3660695.147596906	0.1855101588210156
3728821.30718283	0.187358533611201
3798215.306190736	0.18924130697074426
3868900.7393279755	0.19115911906287353
3940901.6404034477	0.19311262196436454
4014242.490499326	0.19500497059831465
4088948.226294856	0.19681225409298214
4165044.248545185	0.19865317144100594
4242556.430717777	0.20052834857411933
4321511.127789762	0.2024384230727525
4401935.1852088785	0.20438404438281607
4483855.948021181	0.2063658740365186
4567301.270168747	0.20838458587729713
4652299.523960189	0.21044086628892825
4738879.609717651	0.21253541442890814
4827070.965603188	0.21466894246617318
4916903.577628021	0.21684217582324386
5008407.989848212	0.21905585342287873
5101615.314749833	0.22107530288702004
5196557.243827657	0.22312307739907714
5293266.058360566	0.22520896134324495
5391774.640387494	0.22733366394253882
5492116.483887789	0.2294979076187368
5594325.706169377	0.23170242823800774
5698437.0594691355	0.23394797536111556
5804485.942768984	0.23623531249827798
5912508.413831869	0.23856521736876654
6022541.201461928	0.24093848216534264
6134621.717992506	0.24335591382360797
6248788.072006888	0.24581833429637404
6365079.081295578	0.24819667747584703
6483534.286054714	0.2504743747117705
6604193.962330305	0.2527944602808188
6727099.135712336	0.25515772303708334
6852291.595284057	0.25756496651536515
6979813.907830667	0.260017009204385
7109709.432312423	0.26251468482507656
7242022.334607315	0.26505884261406426
7376797.60252773	0.2676503476124083
7514081.061116962	0.27029008095973167
7653919.388230155	0.27297894019381547
7796360.130405221	0.2757178395557703
7941451.71902934	0.27850771030089194
8089243.486805938	0.2810448152314516
8239785.684528512	0.28362524365997527
8393129.498166373	0.28625369430062947
8549327.066268368	0.2889310608549521
8708431.497690724	0.2916582536564213
8870496.889654402	0.2944361999799735
9035578.34613892	0.29726584435729136
9203731.99661823	0.3001481488979523
9375015.01514529	0.30308409361655586
9549485.639791967	0.30607467676594124
9727203.192450536	0.30912091517660223
9908228.099003786	0.31222384460242136
10092621.909870483	0.31521210106918807
10280447.320933098	0.31808195351588003
10471768.194855202	0.32100521440492746
10666649.582795387	0.3239828776765303
10865157.746525371	0.32701595576828485
11067360.180959744	0.33010547995942374
11273325.63710487	0.33325250072146034
11483124.14543511	0.33645808807536276
11696827.039703846	0.3397233319553713
11914506.981197748	0.3430493425795874
12136237.983442418	0.3464372508274613
12362095.437367693	0.34988820862430053
12592156.13694151	0.35339857236718214
