# Frequency (Hz)	Real Part (Ohm/m)
1000.0	9221025.211841512
1018.6101701559753	9231046.531564653
1037.566678745186	9241254.349753024
1056.875971184804	9251652.137174806
1076.5446128423157	9262243.429189753
1096.5792912678098	9273031.826951263
1116.9868184678226	9284020.998630831
1137.7741332214914	9295214.680665229
1158.9483034398106	9306616.67902696
1180.5165285688054	9318230.87051832
1202.4861420374123	9330061.204089554
1224.8646137509306	9342111.702181555
1247.6595526308697	9354386.462093512
1270.8787092020582	9364336.04976133
1294.529978227916	9372019.262940396
1318.6214013947485	9379845.462024068
1343.1611700460153	9387817.308004363
1368.1576279674719	9395937.511394808
1393.619274224142	9404208.833152052
1419.5547660501015	9412634.08561461
1445.9729217920194	9421216.133459108
1472.882723907502	9429957.894674273
1500.2933220192183	9438862.341553118
1528.2140360258693	9447932.501703523
1556.654359271062	9457171.45907767
1585.6239617711371	9466477.542205168
1615.132693503091	9471831.210994959
1645.1905877536624	9477284.512471884
1675.807864530767	9482839.300817208
1706.9949340384078	9488497.464718824
1738.7624002162504	9494260.928013412
1771.1210643450886	9500131.650340606
1804.0819287193826	9506111.627809243
1837.6562003881704	9512202.8936761
1871.8552949655793	9518407.519037208
1906.690840512252	9524727.613532035
1942.1746814890264	9531165.326060815
1978.3188827841643	9537722.845515173
2015.1357338155585	9542550.371555535
2052.6377527092523	9545859.373784812
2090.8376905557498	9549229.95710862
2129.748535745521	9552663.267561609
2169.3835183851843	9556160.472506328
2209.756114795903	9559722.761030132
2250.880052095462	9563351.344349515
2292.7693128656488	9567047.456221893
2335.438139906479	9570812.353365136
2378.9010410788933	9574647.315884827
2423.1727942376006	9578553.647709552
2468.2684522556924	9582532.67703423
2514.2033481427966	9586451.393976076
2560.9931002584594	9587866.469323482
2608.6536176225477	9589307.879463892
2657.2011053245064	9590776.11449228
2706.652070033241	9592271.673624372
2757.0233256095826	9593795.065366395
2808.3319988231724	9595346.807687946
2860.5955351757416	9596927.42819814
2913.831704832789	9598537.464324983
2968.0586086656026	9600177.463498106
3023.2946844057765	9601847.983334893
3079.5587129142264	9603549.591830092
3136.8698245668766	9605282.867548924
3195.2475057592133	9605930.230873356
3254.711605531848	9605711.901135843
3315.282342319423	9605489.508244762
3376.9803108250912	9605262.976584144
3439.8264890229243	9605032.229130771
3503.8422452906757	9604797.187428027
3569.0493456752292	9604557.771559205
3635.4699612933177	9604313.900120327
3703.126675869927	9604065.490192467
3772.0424934169973	9603812.457313584
3842.240846055061	9603554.715449775
3913.745601980384	9603292.176966025
3986.581073580439	9602926.048420172
4060.7720257003657	9601324.463438662
4136.343684063274	9599693.072688123
4213.321743847289	9598031.321478125
4291.732378422157	9596338.644795356
4371.602248248501	9594614.467111498
4452.958509942655	9592858.202187564
4535.828825510186	9591069.252874566
4620.241371751313	9589247.01091044
4706.224849841281	9587390.856713308
4793.808495089106	9585500.159170717
4883.02208687788	9583574.275425157
4973.895958790063	9581612.550655387
5066.461008921268	9579195.369914293
5160.7487103859075	9576436.326259434
5256.791122018419	9573625.936332691
5354.620899273607	9570763.244571202
5454.271305329836	9567847.277628936
5555.7762223988775	9564877.0440457
5659.170163246242	9561851.533910075
5764.488282925873	9558769.71851602
5871.766390733255	9555630.550013091
5981.040962380945	9552432.961050173
6092.349152400711	9549175.86441257
6205.7288067765	9545858.152652325
6321.218475812449	9542461.733330159
6438.8574272404185	9538848.01081086
6558.685659571435	9535167.036300575
6680.743915695614	9531417.558228323
6805.073696735206	9527598.301731141
6931.717276155407	9523707.968220681
7060.717714137772	9519745.234941635
7192.118872221193	9515708.754521975
7325.96542821523	9511597.154514873
7462.302891391108	9507409.036932029
7601.17761795533	9503142.977768334
7742.636826811269	9498797.526517704
7886.728615614156	9494371.205679901
8033.501977124735	9490044.211907627
8183.00681586739	9485752.710516034
8335.293965098195	9481381.343553318
8490.415204088747	9476928.624707613
8648.423275731726	9472393.04000653
8809.37190447399	9467773.0473024
8973.31581458352	9463067.07574793
9140.310748756232	9458273.525262086
9310.413487069076	9453390.765986044
9483.681866285926	9448417.137729049
9660.174799522645	9443350.949403895
9839.952296278227	9438190.478451967
10023.075482838643	9433018.49958728
10209.606623060476	9428347.461456798
10399.609139541202	9423589.494511897
10593.1476351837	9418742.980992561
10790.287915161836	9413806.273031961
10991.097009294961	9408777.692096204
11195.643194838794	9403655.52841359
11403.99601970033	9398438.04039328
11616.22632608502	9393123.454033121
11832.40627458378	9387709.962316493
12052.609368708414	9382195.724597882
12276.910479883603	9376578.865977041
12505.385872903913	9370857.47666153
12738.113231864783	9365648.061995484
12975.171686575868	9360696.622983808
13216.641839466038	9355653.036849616
13462.60579298911	9350515.588719262
13713.147177539455	9345282.531805042
13968.351179887397	9339952.08681121
14228.30457214352	9334522.441329034
14493.09574126215	9328991.749220548
14762.81471909391	9323358.129990846
15037.553212997384	9317619.66814868
15317.404637020798	9311774.412555201
15602.46414366368	9305820.375760525
15892.828656229764	9299929.301604478
16188.596901781993	9294922.410013162
16489.86944471065	9289822.339317378
16796.74872092653	9284627.355438137
17109.339072690134	9279335.692024944
17427.746784089173	9273945.549855229
17752.08011717636	9268455.096222565
18082.44934877952	9262862.464313561
18418.96680799711	9257165.752573118
18761.746914391195	9251363.024057852
19110.90621689136	9245452.30577755
19466.56343342263	9239431.588024305
19828.83949127071	9233298.823689211
20197.857568198782	9227886.43616192
20573.743134329114	9222802.385575213
20956.623994804308	9217623.719942
21346.630333242454	9212348.67846017
21743.8947560008	9206975.467558783
22148.55233726359	9201502.260288237
22560.74066496859	9195927.19569909
22980.599887588487	9190248.378209313
23408.272761782944	9184463.876959758
23843.904700937208	9178571.725157684
24287.643824604504	9172569.919407988
24739.64100886812	9166456.419032047
25200.049937640895	9160449.136993796
25669.027154919517	9155376.777017245
26146.732118010917	9150210.019558456
26633.327251749808	9144947.10786419
27128.978003724646	9139586.252487784
27633.852900531667	9134125.630680641
28148.123605075813	9128563.385772511
28671.964974937695	9122897.62654019
29205.55512182745	9117126.426564494
29749.075472144435	9111247.823575241
30302.71082866393	9105259.818784082
30866.649433372742	9099160.376204867
31441.08303147265	9092947.421961393
32026.206936576502	9087434.567244366
32622.220097116733	9082193.33312015
33229.325163989684	9076854.558737058
33847.72855945983	9071416.428854272
34477.640547344636	9065877.09444903
35119.275304507275	9060234.672087966
35772.850993678774	9054487.243286664
36438.58983763541	9048632.85385741
37116.71819475767	9042669.513244722
37807.466635993485	9036595.193848532
38511.070023255685	9030407.830334794
39227.76758927723	9024105.318933254
39957.803018952654	9017894.834638119
40701.42453219439	9012413.80631158
41458.88496832911	9006830.775115253
42230.441872066716	9001143.842758378
43016.35758106799	8995351.075622674
43816.89931514194	8989450.504104905
44632.33926710397	8983440.121947164
45462.95469532399	8977317.885554774
46309.02801799736	8971081.71330138
47170.84690917023	8964729.484821228
48048.704396551344	8958259.040288199
48942.89896114532	8951668.179681415
49853.73463873894	8944954.662037272
50781.5211232767	8938747.711405039
51726.57387216024	8932682.425545309
52689.21421350677	8926504.263683673
53669.76945540476	8920211.125178548
54668.57299720181	8913800.870295027
55685.96444286408	8907271.319477377
56722.28971644549	8900620.252607975
57777.90117970507	8893845.408252407
58853.1577519145	8886944.48289061
59948.42503189408	8879915.130133592
61064.07542232036	8872754.95992568
62200.48825634718	8865461.537731852
63358.04992658254	8858194.933947342
64537.15401646702	8851358.182818014
65738.20143409586	8844394.198586857
66961.60054853215	8837300.613424195
68207.76732865692	8830075.01543464
69477.1254846024	8822714.947837021
70770.10661181889	8815217.90812905
72087.15033782135	8807581.347236449
73428.70447166759	8799802.66864623
74795.22515621828	8791879.227523854
76187.17702322999	8783808.329813972
77605.0333513357	8775587.2313244
79049.2762269642	8767213.136793068
80520.39670825469	8759131.312126411
82018.8949920221	8751060.057474772
83545.28058382872	8742838.595400687
85100.07247122246	8734464.130518476
86683.79930019773	8725933.815419845
88296.99955494082	8717244.749705743
89940.22174092053	8708393.979000203
91614.0245713852	8699378.493945822
93318.9771573324	8690195.229180543
95055.65920101192	8680841.062295392
96824.66119303115	8671312.812772842
98626.5846131283	8661607.240905387
100462.04213468132	8651862.696532788
102331.65783302448	8642365.693049163
104236.06739764012	8632691.948714735
106175.9183482999	8622838.174352197
108151.87025522892	8612801.019572094
110164.59496336569	8602577.071633654
112214.77682079801	8592162.854284411
114303.11291144785	8581554.82657826
116430.31329208757	8570749.381671473
118597.10123376705	8559742.84559636
120804.21346773289	8548531.476012064
123052.40043592616	8537111.460932126
125342.42654613995	8525478.917428365
127675.07043192645	8514120.658568084
130051.12521734099	8502705.29744787
132471.39878661174	8491077.49451482
134936.71405883064	8479233.296190642
137447.90926775365	8467168.675320292
140005.8382468096	8454879.529802676
142611.37071941295	8442361.681195905
145265.39259467812	8429610.873296577
147968.80626863963	8416622.770692617
150722.53093107554	8403392.957289193
153527.5028780421	8389916.934807202
156384.67583022476	8376190.121253789
159295.0212572123	8362442.004444072
162259.5287078087	8349061.072203716
165279.2061464897	8335431.1185375145
168355.08029612005	8321547.509114374
171488.19698705408	8307405.523357488
174679.62151272455	8293000.352839324
177930.43899185772	8278327.099646689
181241.75473742394	8263380.774715401
184614.69463245454	8248156.296133933
188050.40551285836	8232648.487415527
191550.0555573528	8216852.075738124
195114.83468466165	8200761.690151554
198745.9549580986	8184371.859751336
202444.65099768018	8168635.587076258
206212.18039991445	8152867.5163042545
210049.8241653915	8136805.999052152
213958.88713434213	8120445.574231028
217940.6984302958	8103780.679120152
221996.61191199525	8086805.647475638
226128.00663372793	8069514.707603811
230336.2873142131	8051901.980398817
234622.88481422624	8033961.477343628
238989.25662310526	8015687.0984738935
243436.8873543108	7997072.630303903
247967.289250216	7978111.743713907
252582.00269627848	7959313.851095364
257282.59674479323	7941380.9535226775
262070.66964838552	7923114.321674775
266947.8494034318	7904507.74470001
271915.7943036019	7885554.896161715
276976.1935036891	7866249.33188719
282130.76759394706	7846584.487776558
287381.2691851069	7826553.6775709335
292729.4835042813	7806150.0905790245
298177.22900196735	7785366.789361398
303726.3579703311	7764196.707371712
309378.75717301364	7742632.646553985
315136.34848664823	7720667.27489518
321001.08955431683	7700218.358005233
326974.97445117676	7679837.279150368
333060.03436245886	7659076.9049500525
339258.33827409917	7637930.176653369
345571.9936762143	7616389.9041448375
352003.1472796675	7594448.763499727
358553.9857459817	7572099.294493788
365226.7364308175	7549333.898066749
372023.6681413066	7526144.833738538
378947.09190746717	7502524.216977419
385999.36176797637	7478464.016519197
393182.87557057705	7453956.051636453
400500.07578736113	7429998.993909178
407953.45034524484	7407706.944909379
415545.53347188793	7385000.037084566
423278.90655735444	7361870.5498414235
431156.19903182285	7338310.618905061
439180.0892596086	7314312.233645109
447353.3054498463	7289867.234352006
455678.6265841068	7264967.309462591
464158.8833612772	7239603.9927341165
472796.9591600391	7213768.660365597
481595.79101923504	7187452.528065673
490558.37063650455	7160646.648065799
499687.7453854889	7133341.90607794
508987.0193519675	7108808.7629622435
518459.3543892913	7084461.310480513
528107.971193433	7059660.747765239
537936.1503980698	7034398.642357868
547947.2336900292	7008666.404870365
558144.6249454955	6982455.286064736
568531.7913873753	6955756.373878144
579112.2647641759	6928560.590392785
589889.6425508494	6900858.68874924
600867.5891719692	6872641.250002461
612049.837247669	6843898.679919242
623440.1888627863	6814621.205716051
635042.5168595961	6786447.43419312
646860.7661546321	6760839.327949161
658898.9550799957	6734754.650490633
671161.1767496272	6708184.532746137
683651.6004510238	6681119.940589346
696374.4730628222	6653551.671767323
709334.1204987989	6625470.352771614
722534.9491787221	6596866.435651183
735981.4475265755	6567730.194766026
749678.1874966878	6538051.723480281
763629.8261282243	6507820.930793944
777841.1071286482	6477027.537911764
792316.8624866261	6445661.0747483615
807062.0141149492	6418465.27562448
822081.575524054	6391528.318279901
837380.6535266489	6364090.059575654
852964.4499741016	6336141.170208137
868838.2635251193	6307672.147253819
885007.4914473438	6278673.31093815
901477.6314524917	6249134.801344322
918254.2835656281	6219046.575060793
935343.1520292377	6188398.401766441
952750.0472427299	6157179.860752107
970480.8877380306	6125380.337377479
988541.7021919573	6092989.01946197
1006938.6314760271	6062314.325436592
1025677.9307444209	6034970.308701686
1044765.9715608053	6007117.415162593
1064209.2440647245	5978746.174535407
1084014.359178331	5949846.940292608
1104188.0508541602	5920409.886383173
1124737.1783647507	5890425.003891597
1145668.7286348727	5859882.09763474
1166989.8186171474	5828770.7826953875
1188707.6977119034	5797080.480891239
1210829.7502320393	5764800.417178219
1233363.4979137746	5731919.615986856
1256316.6024741214	5698426.897490455
1279696.8682159416	5670347.511876961
1303512.2446815087	5642517.8501847815
1327770.829355429	5614170.273753122
1352480.8704178738	5585295.144100563
1377650.769549055	5555882.643371888
1403289.084785873	5525922.770999947
1429404.533431761	5495405.340305311
1456005.9950206485	5464319.975032721
1483102.514336103	5432656.105823051
1510703.3044866556	5400402.966619592
1538817.7500383465	5367549.591007493
1567455.410205595	5334084.808485053
1596626.022101425	5302885.344919669
1626339.5040481905	5275477.546523333
1656605.9589499151	5247559.684335234
1687435.6777273756	5219122.2659814255
1718839.1428171454	5190155.62243326
1750827.0317357269	5160649.90471981
1783410.220710006	5130595.080579144
1816599.7883753285	5099980.931047206
1850407.019542302	5068797.0469833035
1884843.4090337954	5037032.825530845
1919920.6655932867	5004677.466512281
1955650.715865947	4971719.968756934
1992045.7084538713	4938149.126360436
2029118.0180466783	4910850.93330317
2066880.2496290822	4883712.228596045
2105345.242766708	4856068.467976499
2144526.0759716653	4827910.252268078
2184436.0711494284	4799228.007374032
2225088.7981283693	4770011.981022056
2266498.079273693	4740252.239448387
2308677.994187172	4709938.664020229
2351642.884494346	4679060.947795325
2395407.358720879	4647608.592017444
2439986.29725955	4615570.902546729
2485394.857429798	4582936.986223563
2531648.478631358	4552960.787573407
2578762.8875937983	4526885.058129768
2626754.1037238385	4500324.054924237
2675638.4445520453	4473268.7469295375
2725432.531281028	4445709.935049438
2776153.2944368036	4417638.2489909455
2827817.979625338	4389044.144078351
2880444.1533962977	4359917.898007867
2934049.709215787	4330249.60754201
2988652.873550383	4300029.185142344
3044272.2120643063	4269246.355539632
3100926.6359319235	4237890.652240139
3158635.408267819	4205951.4139668755
3217418.1506763715	4180675.2242203373
3277294.849923382	4155416.945072035
3338285.8647317644	4129688.605050934
3400411.9327037027	4103481.4562442135
3463694.1773717343	4076786.5879388936
3528154.1153808828	4049594.9235921223
3593813.6638046256	4021897.2177450317
3660695.147596906	3993684.0528791943
3728821.30718283	3964945.8362145713
3798215.306190736	3935672.7964478354
3868900.7393279755	3905854.98043006
3940901.6404034477	3875482.2497825143
4014242.490499326	3847968.5865655616
4088948.226294856	3824166.927853569
4165044.248545185	3799922.3162229466
4242556.430717777	3775226.5082445163
4321511.127789762	3750071.1070774663
4401935.1852088785	3724447.559614356
4483855.948021181	3698347.153572961
4567301.270168747	3671761.014533992
4652299.523960189	3644680.102923717
4738879.609717651	3617095.210940397
4827070.965603188	3588996.9594235313
4916903.577628021	3560375.794664856
5008407.989848212	3531221.985159954
5101615.314749833	3508694.6864691363
5196557.243827657	3486030.04894454
5293266.058360566	3462943.618659086
5391774.640387494	3439427.5459777317
5492116.483887789	3415473.8351823697
5594325.706169377	3391074.341753242
5698437.0594691355	3366220.7695996813
5804485.942768984	3340904.668239354
5912508.413831869	3315117.429925031
6022541.201461928	3288850.2867178195
6134621.717992506	3262094.307506014
6248788.072006888	3234840.3949683886
6365079.081295578	3210470.67374766
6483534.286054714	3189430.5279527493
6604193.962330305	3167998.8214644818
6727099.135712336	3146168.2672717366
6852291.595284057	3123931.4427508656
6979813.907830667	3101280.78714193
7109709.432312423	3078208.598977972
7242022.334607315	3054707.03346641
7376797.60252773	3030768.0998217454
7514081.061116962	3006383.6585486024
7653919.388230155	2981545.4186742036
7796360.130405221	2956244.9349293737
7941451.71902934	2930473.604877019
8089243.486805938	2910975.491325711
8239785.684528512	2891200.7840261916
8393129.498166373	2871058.066059042
8549327.066268368	2850540.4886831217
8708431.497690724	2829641.075701045
8870496.889654402	2808352.7210872145
9035578.34613892	2786668.1865716786
9203731.99661823	2764580.099179051
9375015.01514529	2742080.9487216314
9549485.639791967	2719163.085245834
9727203.192450536	2695818.716431142
9908228.099003786	2672039.904940624
10092621.909870483	2651035.2126733926
10280447.320933098	2632886.059658633
10471768.194855202	2614399.147818082
10666649.582795387	2595568.191402519
10865157.746525371	2576386.787683863
11067360.180959744	2556848.41477817
11273325.63710487	2536946.429428134
11483124.14543511	2516674.0647442914
11696827.039703846	2496024.427904218
11914506.981197748	2474990.4978088927
12136237.983442418	2453565.122695443
12362095.437367693	2431741.0177054782
12592156.13694151	2409585.853641016
12826498.3052806	2393005.5760474587
13065201.621247198	2376116.736666654
13308347.24654076	2358913.593111231
13556017.853293689	2341390.2961270274
13808297.652180923	2323540.8876042534
14065272.421052363	2305359.2985516866
14327029.534098294	2286839.347033147
14593657.991557576	2267974.7360655633
14865248.449978571	2248759.0514779496
15141893.25304352	2229185.759730496
15423686.462966273	2209248.2056931118
15710723.892474487	2188939.610382596
16003103.137387017	2171206.2394056064
16300923.609797413	2155839.508747333
16604286.571875297	2140186.8006167687
16913295.17029647	2124242.7929244917
17228054.471313924	2108002.064536093
17548671.49648152	2091459.0934289284
17875255.259042352	2074608.2548145761
18207916.800994623	2057443.8192263388
18546769.230846975	2039959.9505711726
18891927.762076646	2022150.7041453503
19243509.75230332	2004010.0246131911
19601634.743191857	1985531.743948196
19966424.501097932	1966904.2011881294
20338003.0584698	1952971.6054665816
20716496.75602067	1938779.7217679415
21102034.285685964	1924323.7246988337
21494746.734379806	1909598.6990644974
21894767.628566206	1894599.638197555
22302232.979659364	1879321.4422556986
22717281.330269028	1863758.9164876875
23140053.80130654	1847906.7694670763
23570694.139967278	1831759.6112930754
24009348.76860652	1815311.9517579204
