# Frequency (Hz)	Imaginary Part (Ohm/m)
1000.0	19349728.046941683
1018.6101701559753	19273501.252047084
1037.566678745186	19195855.86352904
1056.875971184804	19116765.481118858
1076.5446128423157	19036203.213234324
1096.5792912678098	18954141.6678363
1116.9868184678226	18870552.943115156
1137.7741332214914	18785408.618003838
1158.9483034398106	18698679.742514376
1180.5165285688054	18610336.827894613
1202.4861420374123	18520349.83660171
1224.8646137509306	18428688.17208902
1247.6595526308697	18335320.668402974
1270.8787092020582	18250240.363687146
1294.529978227916	18173200.786005314
1318.6214013947485	18094727.488674074
1343.1611700460153	18014793.789926812
1368.1576279674719	17933372.511444643
1393.619274224142	17850435.969115626
1419.5547660501015	17765955.96362171
1445.9729217920194	17679903.770850774
1472.882723907502	17592250.132130068
1500.2933220192183	17502965.244277988
1528.2140360258693	17412018.74947063
1556.654359271062	17319379.7249198
1585.6239617711371	17225515.377339575
1615.132693503091	17149534.033814587
1645.1905877536624	17072138.66455794
1675.807864530767	16993302.954310134
1706.9949340384078	16913000.098080248
1738.7624002162504	16831202.792031914
1771.1210643450886	16747883.224199709
1804.0819287193826	16663013.065032847
1837.6562003881704	16576563.45776271
1871.8552949655793	16488505.008591363
1906.690840512252	16398807.776697263
1942.1746814890264	16307441.264055092
1978.3188827841643	16214374.405066099
2015.1357338155585	16130535.725749806
2052.6377527092523	16054654.973079594
2090.8376905557498	15977362.06669063
2129.748535745521	15898630.726161916
2169.3835183851843	15818434.181989351
2209.756114795903	15736745.16648382
2250.880052095462	15653535.904499853
2292.7693128656488	15568778.103991816
2335.438139906479	15482442.94639427
2378.9010410788933	15394501.07682339
2423.1727942376006	15304922.59409597
2468.2684522556924	15213677.040562678
2514.2033481427966	15121759.1767715
2560.9931002584594	15047801.377883617
2608.6536176225477	14972467.211774072
2657.2011053245064	14895731.064014666
2706.652070033241	14817566.843488341
2757.0233256095826	14737947.973517912
2808.3319988231724	14656847.382829715
2860.5955351757416	14574237.496349057
2913.831704832789	14490090.225824416
2968.0586086656026	14404376.960277168
3023.2946844057765	14317068.556273455
3079.5587129142264	14228135.32801518
3136.8698245668766	14137547.037246509
3195.2475057592133	14056916.319283044
3254.711605531848	13983924.918122662
3315.282342319423	13909575.134566769
3376.9803108250912	13833841.688887823
3439.8264890229243	13756698.830898311
3503.8422452906757	13678120.331195284
3569.0493456752292	13598079.472242188
3635.4699612933177	13516549.03928455
3703.126675869927	13433501.311096665
3772.0424934169973	13348908.050556146
3842.240846055061	13262740.495042916
3913.745601980384	13174969.34665966
3986.581073580439	13087107.057127599
4060.7720257003657	13016807.702049788
4136.343684063274	12945200.064012125
4213.321743847289	12872259.795646114
4291.732378422157	12797962.096474592
4371.602248248501	12722281.70447928
4452.958509942655	12645192.88751147
4535.828825510186	12566669.434542775
4620.241371751313	12486684.646753086
4706.224849841281	12405211.328452745
4793.808495089106	12322221.777835663
4883.02208687788	12237687.77756043
4973.895958790063	12151580.58515611
5066.461008921268	12075909.497203449
5160.7487103859075	12007361.043194694
5256.791122018419	11937536.89079291
5354.620899273607	11866413.299033927
5454.271305329836	11793966.085130205
5555.7762223988775	11720170.616248408
5659.170163246242	11645001.801133988
5764.488282925873	11568434.081579862
5871.766390733255	11490441.423736373
5981.040962380945	11410997.309259502
6092.349152400711	11330074.726294335
6205.7288067765	11247646.160290714
6321.218475812449	11165694.055650705
6438.8574272404185	11100478.838313954
6558.685659571435	11034049.9546858
6680.743915695614	10966384.818230072
6805.073696735206	10897460.42207127
6931.717276155407	10827253.331172043
7060.717714137772	10755739.674365047
7192.118872221193	10682895.136236366
7325.96542821523	10608694.948858202
7462.302891391108	10533113.88336732
7601.17761795533	10456126.241387073
7742.636826811269	10377705.846289674
7886.728615614156	10297826.034295816
8033.501977124735	10228575.372423748
8183.00681586739	10165771.96686432
8335.293965098195	10101799.779241057
8490.415204088747	10036637.058320872
8648.423275731726	9970261.648076536
8809.37190447399	9902650.980153387
8973.31581458352	9833782.066195821
9140.310748756232	9763631.49003105
9310.413487069076	9692175.399707314
9483.681866285926	9619389.499383971
9660.174799522645	9545249.041070657
9839.952296278227	9469728.816212693
10023.075482838643	9395197.559130693
10209.606623060476	9336195.5689924
10399.609139541202	9276095.541778103
10593.1476351837	9214877.042830968
10790.287915161836	9152519.257201727
10991.097009294961	9089000.98257138
11195.643194838794	9024300.622042142
11403.99601970033	8958396.176794307
11616.22632608502	8891265.238606375
11832.40627458378	8822884.982236037
12052.609368708414	8753232.157659337
12276.910479883603	8682283.082165416
12505.385872903913	8610013.632304149
12738.113231864783	8548252.170134608
12975.171686575868	8492143.618049737
13216.641839466038	8434990.876263367
13462.60579298911	8376774.512227466
13713.147177539455	8317474.731751002
13968.351179887397	8257071.372269655
14228.30457214352	8195543.89599037
14493.09574126215	8132871.38290826
14762.81471909391	8069032.523693579
15037.553212997384	8004005.612446361
15317.404637020798	7937768.539316114
15602.46414366368	7870298.782984276
15892.828656229764	7804236.582466985
16188.596901781993	7752176.223382993
16489.86944471065	7699147.012158068
16796.74872092653	7645130.918289014
17109.339072690134	7590109.575721889
17427.746784089173	7534064.276607385
17752.08011717636	7476975.96493991
18082.44934877952	7418825.230078394
18418.96680799711	7359592.300146408
18761.746914391195	7299257.035309551
19110.90621689136	7237798.920927674
19466.56343342263	7175197.06057968
19828.83949127071	7111430.168958533
20197.857568198782	7057731.304037308
20573.743134329114	7008819.715655788
20956.623994804308	6958997.874291891
21346.630333242454	6908248.839982723
21743.8947560008	6856555.357509812
22148.55233726359	6803899.850532128
22560.74066496859	6750264.415609941
22980.599887588487	6695630.81611746
23408.272761782944	6639980.476042188
23843.904700937208	6583294.473668875
24287.643824604504	6525553.53514594
24739.64100886812	6466738.027932129
25200.049937640895	6409626.264342097
25669.027154919517	6364765.981746289
26146.732118010917	6319070.841658128
26633.327251749808	6272525.307237629
27128.978003724646	6225113.552501564
27633.852900531667	6176819.456942463
28148.123605075813	6127626.600047478
28671.964974937695	6077518.255715225
29205.55512182745	6026477.386568708
29749.075472144435	5974486.638162463
30302.71082866393	5921528.333081856
30866.649433372742	5867584.464932514
31441.08303147265	5812636.692218042
32026.206936576502	5767036.745884955
32622.220097116733	5725345.636241777
33229.325163989684	5682878.647954158
33847.72855945983	5639621.341788486
34477.640547344636	5595559.009794586
35119.275304507275	5550676.67030481
35772.850993678774	5504959.062840127
36438.58983763541	5458390.642921409
37116.71819475767	5410955.576784102
37807.466635993485	5362637.735994625
38511.070023255685	5313420.691966486
39227.76758927723	5263287.7103744
39957.803018952654	5215022.595181039
40701.42453219439	5177166.525277615
41458.88496832911	5138605.947471856
42230.441872066716	5099327.750751822
43016.35758106799	5059318.580107401
43816.89931514194	5018564.831989493
44632.33926710397	4977052.649684617
45462.95469532399	4934767.918603504
46309.02801799736	4891696.261481967
47170.84690917023	4847823.033492496
48048.704396551344	4803133.317264856
48942.89896114532	4757611.917813993
49853.73463873894	4711243.357373614
50781.5211232767	4673302.740588142
51726.57387216024	4638439.691629756
52689.21421350677	4602927.835398106
53669.76945540476	4566755.097479429
54668.57299720181	4529909.178753077
55685.96444286408	4492377.551209677
56722.28971644549	4454147.453691455
57777.90117970507	4415205.887553345
58853.1577519145	4375539.612243268
59948.42503189408	4335135.140800213
61064.07542232036	4293978.735268542
62200.48825634718	4252056.402026915
63358.04992658254	4212045.0891140895
64537.15401646702	4180644.7833027286
65738.20143409586	4148660.1124572684
66961.60054853215	4116080.201444992
68207.76732865692	4082893.972745108
69477.1254846024	4049090.142682286
70770.10661181889	4014657.2175900713
72087.15033782135	3979583.489902924
73428.70447166759	3943857.0341755133
74795.22515621828	3907465.7030279413
76187.17702322999	3870397.123015513
77605.0333513357	3832638.6904216167
79049.2762269642	3794177.5669723223
80520.39670825469	3763124.630571221
82018.8949920221	3734412.133965145
83545.28058382872	3705165.2929116283
85100.07247122246	3675374.163169583
86683.79930019773	3645028.615433897
88296.99955494082	3614118.331891375
89940.22174092053	3582632.8027125527
91614.0245713852	3550561.322478268
93318.9771573324	3517892.9865396656
95055.65920101192	3484616.687310535
96824.66119303115	3450721.1104905885
98626.5846131283	3416194.731218485
100462.04213468132	3383527.184225241
102331.65783302448	3357825.369099761
104236.06739764012	3331645.2388214823
106175.9183482999	3304977.8918640176
108151.87025522892	3277814.2610420613
110164.59496336569	3250145.1104284604
112214.77682079801	3221961.0322138662
114303.11291144785	3193252.4435080104
116430.31329208757	3164009.5830814
118597.10123376705	3134222.5080464
120804.21346773289	3103881.090476555
123052.40043592616	3072975.0139629603
125342.42654613995	3041493.770106593
127675.07043192645	3016392.6175564025
130051.12521734099	2993014.1335411007
132471.39878661174	2969200.5719602895
134936.71405883064	2944943.8359464398
137447.90926775365	2920235.6779479417
140005.8382468096	2895067.696924851
142611.37071941295	2869431.3354924377
145265.39259467812	2843317.8770115883
147968.80626863963	2816718.4426250495
150722.53093107554	2789623.9882385256
153527.5028780421	2762025.3014455833
156384.67583022476	2733912.9983953414
159295.0212572123	2707542.547519818
162259.5287078087	2686708.1171110184
165279.2061464897	2665485.954407205
168355.08029612005	2643868.843644401
171488.19698705408	2621849.4347720146
174679.62151272455	2599420.240953784
177930.43899185772	2576573.636022133
181241.75473742394	2553301.851885215
184614.69463245454	2529596.975885682
188050.40551285836	2505450.9481102657
191550.0555573528	2480855.55864936
195114.83468466165	2455802.4448055346
198745.9549580986	2430283.088250136
202444.65099768018	2410173.676830431
206212.18039991445	2391292.6990263844
210049.8241653915	2372060.3430126933
213958.88713434213	2352470.069581089
217940.6984302958	2332515.217827518
221996.61191199525	2312189.002887381
226128.00663372793	2291484.5136285755
230336.2873142131	2270394.710301673
234622.88481422624	2248912.4221463013
238989.25662310526	2227030.3449530164
243436.8873543108	2204741.0385798034
247967.289250216	2182036.92442232
252582.00269627848	2160920.684321719
257282.59674479323	2144145.8786432054
262070.66964838552	2127058.890976679
266947.8494034318	2109653.9115622295
271915.7943036019	2091925.0225193116
276976.1935036891	2073866.1958346309
282130.76759394706	2055471.291312531
287381.2691851069	2036734.0544872698
292729.4835042813	2017648.114496442
298177.22900196735	1998206.9819147936
303726.3579703311	1978404.046547778
309378.75717301364	1958232.5751839948
315136.34848664823	1937685.7093058329
321001.08955431683	1921674.516939767
326974.97445117676	1906510.7909663264
333060.03436245886	1891064.8654723233
339258.33827409917	1875331.4886766593
345571.9936762143	1859305.311061699
352003.1472796675	1842980.883554378
358553.9857459817	1826352.655673443
365226.7364308175	1809414.9736422535
372023.6681413066	1792162.0784664154
378947.09190746717	1774588.103975671
385999.36176797637	1756687.0748293393
393182.87557057705	1738452.904484624
400500.07578736113	1721637.0259440278
407953.45034524484	1708192.4998233882
415545.53347188793	1694497.7687839742
423278.90655735444	1680548.1764696802
431156.19903182285	1666338.9798688083
439180.0892596086	1651865.347701415
447353.3054498463	1637122.3587766117
455678.6265841068	1622105.0003193086
464158.8833612772	1606808.1662658255
472796.9591600391	1591226.655527755
481595.79101923504	1575355.1702235644
490558.37063650455	1559188.313877235
499687.7453854889	1542720.58958341
508987.0193519675	1530025.1326832555
518459.3543892913	1517892.1300871233
528107.971193433	1505533.3302481752
537936.1503980698	1492944.5310413006
547947.2336900292	1480121.4521391245
558144.6249454955	1467059.7335566585
568531.7913873753	1453754.9341688405
579112.2647641759	1440202.5302005264
589889.6425508494	1426397.9136883388
600867.5891719692	1412336.3909139195
612049.837247669	1398013.1808080194
623440.1888627863	1383423.4133248655
635042.5168595961	1370081.3230297945
646860.7661546321	1359338.4403436193
658898.9550799957	1348395.630782686
671161.1767496272	1337249.1736738433
683651.6004510238	1325895.2791015655
696374.4730628222	1314330.0866193657
709334.1204987989	1302549.6639371861
722534.9491787221	1290550.0055843804
735981.4475265755	1278327.031547818
749678.1874966878	1265876.5858846202
763629.8261282243	1253194.4353091144
777841.1071286482	1240276.267753454
792316.8624866261	1227117.690901478
807062.0141149492	1217078.8231469681
822081.575524054	1207394.4772789397
837380.6535266489	1197529.9040864585
852964.4499741016	1187481.7495083495
868838.2635251193	1177246.597063788
885007.4914473438	1166820.9666906605
901477.6314524917	1156201.3135623066
918254.2835656281	1145384.0268822364
935343.1520292377	1134365.4286564244
952750.0472427299	1123141.7724427478
970480.8877380306	1111709.2420771644
988541.7021919573	1100063.9503761642
1006938.6314760271	1089503.6287057868
1025677.9307444209	1080936.3644075599
1044765.9715608053	1072209.6618629713
1064209.2440647245	1063320.5538991285
1084014.359178331	1054266.0181235431
1104188.0508541602	1045042.975896491
1124737.1783647507	1035648.2912842378
1145668.7286348727	1026078.7699927874
1166989.8186171474	1016331.1582817934
1188707.6977119034	1006402.1418582432
1210829.7502320393	996288.3447495693
1233363.4979137746	985986.3281557797
1256316.6024741214	975492.5892802294
1279696.8682159416	967568.6416785477
1303512.2446815087	959850.9736282333
1327770.829355429	951989.6784622954
1352480.8704178738	943982.0832556731
1377650.769549055	935825.4653397141
1403289.084785873	927517.0513764435
1429404.533431761	919054.0164155897
1456005.9950206485	910433.4829340789
1483102.514336103	901652.5198576414
1510703.3044866556	892708.1415642173
1538817.7500383465	883597.306868814
1567455.410205595	874316.9179894662
1596626.022101425	865971.5866078491
1626339.5040481905	859147.9925490689
1656605.9589499151	852197.4102437786
1687435.6777273756	845117.4764191046
1718839.1428171454	837905.7838212608
1750827.0317357269	830559.880397057
1783410.220710006	823077.2684601818
1816599.7883753285	815455.4038419479
1850407.019542302	807691.6950262641
1884843.4090337954	799783.5022684789
1919920.6655932867	791728.1366978437
1955650.715865947	783522.8594032729
1992045.7084538713	775164.8805020712
2029118.0180466783	768917.6723806148
2066880.2496290822	762773.5303565338
2105345.242766708	756515.044803922
2144526.0759716653	750140.0877702578
2184436.0711494284	743646.4917014593
2225088.7981283693	737032.0487048969
2266498.079273693	730294.5097986814
2308677.994187172	723431.584146988
2351642.884494346	716440.9382811507
2395407.358720879	709320.1953062479
2439986.29725955	702066.9340929459
2485394.857429798	694678.6884542791
2531648.478631358	688090.5795398005
2578762.8875937983	682660.179625414
2626754.1037238385	677128.7190446048
2675638.4445520453	671494.3170411761
2725432.531281028	665755.0578577366
2776153.2944368036	659908.9900843236
2827817.979625338	653954.1259949049
2880444.1533962977	647888.4408715253
2934049.709215787	641709.8723158876
2988652.873550383	635416.3195481093
3044272.2120643063	629005.642692436
3100926.6359319235	622475.6620496655
3158635.408267819	615824.1573560163
3217418.1506763715	610902.7434098094
3277294.849923382	606014.4760495505
3338285.8647317644	601035.2372019487
3400411.9327037027	595963.3338721467
3463694.1773717343	590797.0415583615
3528154.1153808828	585534.6036655419
3593813.6638046256	580174.2309081013
3660695.147596906	574714.1007015449
3728821.30718283	569152.3565427718
3798215.306190736	563487.1073788389
3868900.7393279755	557716.4269639896
3940901.6404034477	551838.3532047044
4014242.490499326	546641.0057262081
4088948.226294856	542321.5809088175
4165044.248545185	537921.7708605984
4242556.430717777	533440.0795987283
4321511.127789762	528874.9832998886
4401935.1852088785	524224.9297821483
4483855.948021181	519488.33797720965
4567301.270168747	514663.59739282035
4652299.523960189	509749.0675651979
4738879.609717651	504743.0775012466
4827070.965603188	499643.92511040583
4916903.577628021	494449.87662592105
5008407.989848212	489159.1660153406
5101615.314749833	485284.2483201576
5196557.243827657	481396.7603809753
5293266.058360566	477436.9256297653
5391774.640387494	473403.39768004627
5492116.483887789	469294.8050888534
5594325.706169377	465109.7508904376
5698437.0594691355	460846.81212127703
5804485.942768984	456504.5393362574
5912508.413831869	452081.45611584565
6022541.201461928	447576.0585640873
6134621.717992506	442986.81479727075
6248788.072006888	438312.1644230668
6365079.081295578	434213.8593831763
6483534.286054714	430779.24210246286
6604193.962330305	427280.7060097342
6727099.135712336	423717.06156502326
6852291.595284057	420087.09709082096
6979813.907830667	416389.57836009323
7109709.432312423	412623.2481766324
7242022.334607315	408786.825947593
7376797.60252773	404879.0072480814
7514081.061116962	400898.4633776334
7653919.388230155	396843.84090844245
7796360.130405221	392713.76122518245
7941451.71902934	388506.8200562584
8089243.486805938	385456.9921398008
8239785.684528512	382366.1890952426
8393129.498166373	379217.86568010616
8549327.066268368	376010.95143050875
8708431.497690724	372744.35596104997
8870496.889654402	369416.9685940744
9035578.34613892	366027.6579820243
9203731.99661823	362575.2717227725
9375015.01514529	359058.6359677918
9549485.639791967	355476.55502303457
9727203.192450536	351827.81094238296
9908228.099003786	348111.1631135348
10092621.909870483	344880.50437725167
10280447.320933098	342150.02103915194
10471768.194855202	339368.7229415223
10666649.582795387	336535.66441304144
10865157.746525371	333649.8821832835
11067360.180959744	330710.3950551964
11273325.63710487	327716.2035714846
11483124.14543511	324666.28967478155
11696827.039703846	321559.6163614996
11914506.981197748	318395.12732923834
12136237.983442418	315171.7466176298
12362095.437367693	311888.3782425011
12592156.13694151	308556.2229720253
12826498.3052806	306144.13051476266
13065201.621247198	303687.1486064382
13308347.24654076	301184.4418467296
13556017.853293689	298635.15928837244
13808297.652180923	296038.4341478286
14065272.421052363	293393.3835105708
14327029.534098294	290699.1080308826
14593657.991557576	287954.69162607007
14865248.449978571	285159.20116498537
15141893.25304352	282311.6861507505
15423686.462966273	279411.1783975791
15710723.892474487	276456.6917015823
16003103.137387017	273910.5565691825
16300923.609797413	271740.12768473447
16604286.571875297	269529.3067494354
16913295.17029647	267277.3420603459
17228054.471313924	264983.4679252074
17548671.49648152	262646.9044020972
17875255.259042352	260266.8570342421
18207916.800994623	257842.51657989182
18546769.230846975	255373.05873717004
18891927.762076646	252857.64386380214
19243509.75230332	250295.41669162782
19601634.743191857	247685.50603580143
19966424.501097932	245056.39307298444
20338003.0584698	243139.13418152143
20716496.75602067	241186.19477585523
21102034.285685964	239196.91083554496
21494746.734379806	237170.6059826174
21894767.628566206	235106.59125158878
