Frequency [GHz]	Zx real [Ohm/m]	Zy real [Ohm/m]
1.000000000000000166e-10	2.402875025692943893e+02	2.746662405828989790e+02
1.032794731918951654e-10	2.462229895029082911e+02	2.809848023868992186e+02
1.066664958279539403e-10	2.523531291393185541e+02	2.875105797313749463e+02
1.101645949633656381e-10	2.586843050617305835e+02	2.942503681944254481e+02
1.137774133221491146e-10	2.652231102012498809e+02	3.012111862133122600e+02
1.175087130904807540e-10	2.719763537023899858e+02	3.084002823930650266e+02
1.213623798344240958e-10	2.789510680137333907e+02	3.158251430547724112e+02
1.253424265461399975e-10	2.861545162111285094e+02	3.234935000314159197e+02
1.294529978227915867e-10	2.935941995610493223e+02	3.314133387193674025e+02
1.336983741824946476e-10	3.012778653319925866e+02	3.395929063939315142e+02
1.380829765218092491e-10	3.092135148620488394e+02	3.480407207975958954e+02
1.426113707194128486e-10	3.174094118910459770e+02	3.567655790099295245e+02
1.472882723907502473e-10	3.258740911659444919e+02	3.657765666083674319e+02
1.521185517986104510e-10	3.346163673284432321e+02	3.750830671294212948e+02
1.571072389247450498e-10	3.436453440940525184e+02	3.846947718401665952e+02
1.622595287078087593e-10	3.529704237321923870e+02	3.946216898301848346e+02
1.675807864530767868e-10	3.626013168571879532e+02	4.048741584344672901e+02
1.730765534195724819e-10	3.725480525403577303e+02	4.154628539981344488e+02
1.787525525904235329e-10	3.828209887537258282e+02	4.263988029941837112e+02
1.846146946324547531e-10	3.934308231562318383e+02	4.376933935058376051e+02
1.906690840512252406e-10	4.043886042336724813e+02	4.493583870854555471e+02
1.969220255479172543e-10	4.157057428039743172e+02	4.614059310023533271e+02
2.033800305846981002e-10	4.273940238997787446e+02	4.738485708922874551e+02
2.100498241653915480e-10	4.394656190407136478e+02	4.866992638217762988e+02
2.169383518385184289e-10	4.519330989081294092e+02	4.999713917808602446e+02
2.240527869300018610e-10	4.648094464355021387e+02	5.136787756183564397e+02
2.314005380130653023e-10	4.781080703281302817e+02	5.278356894341136467e+02
2.389892566231049743e-10	4.918428190262081898e+02	5.424568754432582409e+02
2.468268452255692806e-10	5.060279951258136748e+02	5.575575593279097575e+02
2.549214654451423314e-10	5.206783702728288290e+02	5.731534660923512092e+02
2.632815465648021228e-10	5.358092005453023603e+02	5.892608364381657111e+02
2.719157943036017723e-10	5.514362423402728837e+02	6.058964436763902768e+02
2.808331998823172083e-10	5.675757687815957979e+02	6.230776111943014257e+02
2.900430493863991314e-10	5.842445866658606519e+02	6.408222304950171520e+02
2.995549334359813486e-10	6.014600539640456418e+02	6.591487798287035957e+02
3.093787571730138678e-10	6.192400978971344330e+02	6.780763434347879866e+02
3.195247505759212065e-10	6.376032336045155944e+02	6.976246314152124341e+02
3.300034791125284578e-10	6.565685834246120294e+02	7.178140002594295765e+02
3.408258547423451742e-10	6.761558968078076077e+02	7.386654740425055934e+02
3.520031472796679687e-10	6.963855708824175963e+02	7.602007663184127750e+02
3.635469961293320139e-10	7.172786716951120525e+02	7.824423027313046077e+02
3.754694224073336536e-10	7.388569561479146159e+02	8.054132443683228075e+02
3.877828414589456106e-10	7.611428946546174075e+02	8.291375118782524396e+02
4.005000757873611052e-10	7.841596945402098982e+02	8.536398103811441160e+02
4.136343684063274911e-10	8.079313242076826782e+02	8.789456551948362630e+02
4.271993966306778827e-10	8.324825380973769597e+02	9.050813984051762873e+02
4.412092863191189219e-10	8.578389024648683971e+02	9.320742563076015585e+02
4.556786265841064474e-10	8.840268220042311214e+02	9.599523377486635809e+02
4.706224849841281415e-10	9.110735673444017948e+02	9.887446733969994739e+02
4.860564232142136024e-10	9.390073034472841300e+02	1.018481245974243166e+03
5.019965133110081441e-10	9.678571189371550645e+02	1.049193021477346065e+03
5.184593543892912175e-10	9.976530563919275210e+02	1.080911981424828582e+03
5.354620899273606527e-10	1.028426143627802958e+03	1.113671156160536384e+03
5.530224256192902378e-10	1.060208426009897721e+03	1.147504659249588030e+03
5.711586478126431938e-10	1.093032999822485635e+03	1.182447723002323755e+03
5.898896425508497150e-10	1.126934046733611012e+03	1.218536735163257845e+03
6.092349152400710261e-10	1.161946869389958465e+03	1.255809276803229068e+03
6.292146109610343618e-10	1.198107928179046894e+03	1.294304161454221457e+03
6.498495354469890483e-10	1.235454879197029186e+03	1.334061475527593757e+03
6.711611767496282870e-10	1.274026613461635861e+03	1.375122620057820313e+03
6.931717276155404727e-10	1.313863297411099666e+03	1.417530353815200442e+03
7.159041085964887260e-10	1.355006414731225959e+03	1.461328837832444378e+03
7.393819919175865964e-10	1.397498809554175750e+03	1.506563681391490263e+03
7.636298261282244400e-10	1.441384731073938838e+03	1.553281989518450928e+03
7.886728615614152294e-10	1.486709879624958376e+03	1.601532412036142205e+03
8.145371766280743462e-10	1.533521454271895209e+03	1.651365194225277492e+03
8.412497049736117954e-10	1.581868201960082388e+03	1.702832229147080852e+03
8.688382635251186617e-10	1.631800468277856908e+03	1.755987111681807846e+03
8.973315814583522479e-10	1.683370249883628503e+03	1.810885194339444752e+03
9.267593301146878953e-10	1.736631248652280419e+03	1.867583644900703348e+03
9.571521538991863169e-10	1.791638927597285829e+03	1.926141505948338363e+03
9.885417021919573871e-10	1.848450568626776658e+03	1.986619756350777834e+03
1.020960662306046580e-09	1.895957288743782783e+03	2.034365413383264922e+03
1.054442793526168950e-09	1.938716672351852594e+03	2.075368469536244902e+03
1.089022962263730067e-09	1.982878338482368463e+03	2.117716209923618862e+03
1.124737178364752061e-09	2.028488274614729335e+03	2.161452733104370964e+03
1.161622632608501755e-09	2.075593976375389957e+03	2.206623583837902515e+03
1.199717735435884489e-09	2.124244496997146598e+03	2.253275800511790749e+03
1.239062156947916503e-09	2.174490498400411980e+03	2.301457964124924729e+03
1.279696868215940940e-09	2.226384303949695550e+03	2.351220248877026279e+03
1.321664183946605026e-09	2.279979952940222574e+03	2.402614474417247948e+03
1.365007806546013663e-09	2.335333256871415870e+03	2.455694159806242169e+03
1.409772871628966933e-09	2.392501857565861883e+03	2.510514579247912025e+03
1.456005995020649598e-09	2.451545287194262983e+03	2.567132819648855275e+03
1.503755321299737753e-09	2.512525030268902356e+03	2.625607840065469645e+03
1.553070573933460069e-09	2.575504587670161982e+03	2.686000533100603207e+03
1.604003107056820079e-09	2.640549542772770110e+03	2.748373788313686873e+03
1.656605958949914401e-09	2.707727629740648354e+03	2.812792557710396522e+03
1.710933907269014249e-09	2.777108804061465889e+03	2.879323923380019096e+03
1.767043526088946692e-09	2.848765315394357913e+03	2.948037167350980326e+03
1.824993244816152494e-09	2.922771782806657939e+03	3.019003843737249554e+03
1.884843409033795523e-09	2.999205272478012830e+03	3.092297853250785010e+03
1.946656343342262358e-09	3.078145377952771469e+03	3.167995520157583542e+03
2.010496416260498236e-09	3.159674303024226447e+03	3.246175671757478085e+03
2.076430107255774870e-09	3.243876947337042566e+03	3.326919720470476932e+03
2.144526075971667793e-09	3.330840994796962605e+03	3.410311748615067700e+03
2.214855233726359314e-09	3.420657004879917167e+03	3.496438595966837966e+03
2.287490817355702788e-09	3.513418506935573532e+03	3.585389950188535295e+03
2.362508465477946229e-09	3.609222097583543018e+03	3.677258440225758932e+03
2.439986297259550245e-09	3.708167541303688267e+03	3.772139732765554527e+03
2.520004993764092080e-09	3.810357874325235116e+03	3.870132631858314653e+03
2.602647881969005809e-09	3.915899511922933016e+03	3.971339181806784381e+03
2.688001021537606561e-09	4.024902359231934042e+03	4.075864773429254001e+03
2.776153294436799262e-09	4.137479925696835380e+03	4.183818253807652582e+03
2.867196497493770032e-09	4.253749443274043188e+03	4.295312039634781286e+03
2.961225437988034610e-09	4.373831988510539304e+03	4.410462234278736105e+03
3.058338032378433485e-09	4.497852608626213623e+03	4.529388748686457802e+03
3.158635408267817403e-09	4.625940451731002213e+03	4.652215426252233556e+03
3.262222009711669644e-09	4.758228901312490052e+03	4.779070171781276258e+03
3.369205705980266915e-09	4.894855715133974627e+03	4.910085084682588786e+03
3.479697903887691433e-09	5.035963168687675534e+03	5.045396596529884846e+03
3.593813663804627762e-09	5.181698203352439123e+03	5.185145613133763618e+03
3.711671819475765297e-09	5.332212579410229409e+03	5.329477661273101148e+03
3.833395101766601886e-09	5.487663034080786929e+03	5.478543040238483627e+03
3.959110266468459240e-09	5.648211444738940372e+03	5.632496978345430762e+03
4.088948226294862618e-09	5.814024997484644700e+03	5.791499794580464368e+03
4.223044187206674123e-09	5.985276361241170889e+03	5.955717065548280516e+03
4.361537789208003199e-09	6.162143867562846935e+03	6.125319797893948817e+03
4.504573251759458750e-09	6.344811696339519585e+03	6.300484606379618526e+03
4.652299523960189308e-09	6.533470067591137195e+03	6.481393897801206549e+03
4.804870439655131104e-09	6.728315439552219686e+03	6.668236060936617832e+03
4.962444877628916452e-09	6.929550713252412606e+03	6.861205662723206842e+03
5.125186927053329472e-09	7.137385443806237163e+03	7.060503650868893601e+03
5.293266058360561204e-09	7.352036058632028471e+03	7.266337563107808819e+03
5.466857299720180771e-09	7.573726082827265600e+03	7.478921743318424888e+03
5.646141419303669251e-09	7.802686371935094030e+03	7.698477564729261758e+03
5.831305113526221869e-09	8.039155352344296261e+03	7.925233660444509951e+03
6.022541201461928965e-09	8.283379269573171769e+03	8.159426161529730962e+03
6.220048825634711276e-09	8.535612444695758313e+03	8.401298942905463264e+03
6.424033659394191079e-09	8.796117539177554136e+03	8.651103877304909474e+03
6.634708121092347870e-09	9.065165828396411598e+03	8.909101097560016569e+03
6.852291595284060743e-09	9.343037484133445105e+03	9.175559267489223203e+03
7.077010661181889919e-09	9.630021866328255783e+03	9.450755861668874786e+03
7.309099328602911004e-09	9.926417824402067708e+03	9.734977454379653864e+03
7.548799281653435948e-09	1.023253400846277327e+04	1.002852001802896302e+04
7.796360130405233414e-09	1.054868919071579876e+04	1.033168923135994919e+04
8.052039670825474778e-09	1.087521259741559879e+04	1.064480079776820457e+04
8.316104153230961616e-09	1.121244425170338764e+04	1.096818077405754593e+04
8.588828559546249041e-09	1.156073532768812220e+04	1.130216590997724961e+04
8.870496889654407999e-09	1.192044851613954779e+04	1.164710399889436121e+04
9.161402457138517586e-09	1.229195840217394107e+04	1.200335423996613645e+04
9.461848194721997291e-09	1.267565185532607393e+04	1.237128761218992258e+04
9.772146969725725887e-09	1.307192843241339324e+04	1.275128726071983328e+04
1.009262190987047331e-08	1.346275961162184649e+04	1.312078897647776830e+04
1.042360673976401127e-08	1.381955429974231993e+04	1.344407390601282896e+04
1.076544612842315905e-08	1.418804997400982393e+04	1.377796087814544262e+04
1.111849604819270880e-08	1.456863036512820872e+04	1.412279758402036350e+04
1.148312414543511117e-08	1.496169178814693259e+04	1.447894311722026941e+04
1.185971012337669343e-08	1.536764355516123760e+04	1.484676834770559435e+04
1.224864613750930795e-08	1.578690840154680154e+04	1.522665630801771476e+04
1.265033720395903769e-08	1.621669655117077673e+04	1.561517056006385246e+04
1.306520162124721228e-08	1.664199876717932784e+04	1.599435732786151129e+04
1.349367140588306343e-08	1.708124865534641140e+04	1.638597942405630602e+04
1.393619274224142065e-08	1.753490362584137256e+04	1.679044466190934691e+04
1.439322644719406651e-08	1.800343608947740722e+04	1.720817422880831509e+04
1.486524844997857277e-08	1.848733394965373009e+04	1.763960312486836119e+04
1.535275028780422776e-08	1.898710111043067809e+04	1.808518061591677906e+04
1.585623961771137302e-08	1.950287303547834745e+04	1.854492185342902303e+04
1.637624074521687477e-08	2.000856383392841599e+04	1.898826471918345123e+04
1.691329517029648562e-08	2.053083862654755285e+04	1.944614689536848891e+04
1.746796215127245689e-08	2.107024128097864377e+04	1.991904519477196664e+04
1.804081928719382751e-08	2.162733350085817438e+04	2.040745206712931031e+04
1.863246311931559514e-08	2.220269541074278459e+04	2.091187611193298289e+04
1.924350975230330612e-08	2.279692616021844151e+04	2.143284260805946906e+04
1.987459549580983990e-08	2.341064454782116809e+04	2.197089406076519663e+04
2.052637752709252173e-08	2.401436460481553877e+04	2.249216760823611912e+04
2.119953457536071000e-08	2.463365229327102497e+04	2.302570128801151077e+04
2.189476762856620985e-08	2.527324935545011977e+04	2.357673206178486362e+04
2.261280066337277307e-08	2.593382183181952496e+04	2.414583374206320877e+04
2.335438139906479724e-08	2.661605760546453166e+04	2.473359895938093541e+04
2.412028207618007283e-08	2.732066711841171855e+04	2.534063977943185455e+04
2.491130026067788373e-08	2.804838411144354541e+04	2.596758834044019750e+04
2.572825967447932303e-08	2.876810173489333829e+04	2.657947448245734995e+04
2.657201105324503850e-08	2.950021306476632162e+04	2.719889591766515150e+04
2.744343303228365032e-08	3.025633378943733987e+04	2.783863111278546785e+04
2.834343306151309448e-08	3.103725129057228696e+04	2.849934625212885658e+04
2.927294835042816131e-08	3.184377877180777068e+04	2.918172936734179893e+04
3.023294684405776334e-08	3.267675610557563778e+04	2.988649105388417956e+04
3.122442823092858392e-08	3.353705070769901067e+04	3.061436521100347818e+04
3.224842498408442807e-08	3.439301132163822331e+04	3.133057439297822202e+04
3.330600343624588813e-08	3.525564069185226253e+04	3.204690418657658665e+04
3.439826489022924478e-08	3.614655976100786938e+04	3.278672582372156467e+04
3.552634676578139226e-08	3.706669628219791775e+04	3.355080971312455222e+04
3.669142378402493899e-08	3.801700843392927345e+04	3.433995152884413255e+04
3.789470919074667737e-08	3.899848581791593460e+04	3.515497303885624569e+04
3.913745601980383687e-08	4.001215048959496198e+04	3.599672296079737862e+04
4.042095839796305955e-08	4.102751379318116233e+04	3.683250330160642625e+04
4.174655289253134782e-08	4.204023253781360108e+04	3.765743626252452668e+04
4.311561990318228626e-08	4.308616312218559324e+04	3.850942267874706886e+04
4.452958509942655287e-08	4.416639471967785357e+04	3.938934976108818228e+04
4.598992090522439315e-08	4.528205222282026807e+04	4.029813381620291329e+04
4.749814803228499868e-08	4.643429741469158762e+04	4.123672120077733416e+04
4.905583706365045989e-08	4.762433017873523931e+04	4.220608930701139616e+04
5.066461008921269181e-08	4.882539354791985534e+04	4.317825132713682979e+04
5.232614239486661694e-08	5.000954689025422704e+04	4.412398551915798453e+04
5.404216420705915059e-08	5.123253422400138516e+04	4.510073481047306268e+04
5.581446249454960394e-08	5.249562909949906316e+04	4.610951633294884959e+04
5.764488282925879445e-08	5.380014683282692567e+04	4.715138057501905860e+04
5.953533130814369715e-08	5.514744587550275901e+04	4.822741247560385091e+04
6.148777653810024108e-08	5.653892922909779736e+04	4.933873255390457780e+04
6.350425168595962148e-08	5.795529762718026177e+04	5.046562429071946099e+04
6.558685659571428548e-08	5.933377025732415495e+04	5.154461674552543263e+04
6.773775997517751128e-08	6.075744952783126791e+04	5.265899446862938930e+04
6.995920165435375620e-08	6.222781797835320322e+04	5.380991791041894612e+04
7.225349491787214948e-08	6.374640676803207316e+04	5.499858557794123772e+04
7.462302891391107044e-08	6.531479726996357931e+04	5.622623528296063887e+04
7.707027114212294845e-08	6.693462271795017296e+04	5.749414543094652618e+04
7.959777002314985573e-08	6.859929214835204766e+04	5.879556099325852847e+04
8.220815755240541849e-08	7.019610219745166251e+04	6.002019843441959529e+04
8.490415204088747078e-08	7.184527920403696771e+04	6.128499753216145473e+04
8.768856094587425811e-08	7.354854052844013495e+04	6.259127537724508147e+04
9.056428379445295063e-08	7.530765985136509698e+04	6.394039225406994228e+04
9.353431520292386860e-08	7.712446902089875948e+04	6.533375305719755852e+04
9.660174799522647250e-08	7.900085996009517112e+04	6.677280875433012261e+04
9.976977642363202159e-08	8.093878663711767877e+04	6.825905789726658259e+04
1.030416994950587396e-07	8.278984889231527632e+04	6.965198395505954977e+04
1.064209244064724761e-07	8.468985784649581183e+04	7.107948529981711181e+04
1.099109700929497372e-07	8.665217708497225249e+04	7.255380116848986654e+04
1.135154708920999096e-07	8.867885005681389885e+04	7.407646683083959215e+04
1.172381803286598596e-07	9.077198722545448982e+04	7.564906790538829227e+04
1.210829750232039531e-07	9.293376826641024672e+04	7.727324201059226471e+04
1.250538587290391570e-07	9.516644433707170538e+04	7.895068047016617493e+04
1.291549665014884007e-07	9.731388202027956140e+04	8.053844803749979474e+04
1.333905690039058854e-07	9.948967302631506755e+04	8.213987237430438108e+04
1.377650769549053468e-07	1.017368185151051584e+05	8.379381499292295484e+04
1.422830457214352017e-07	1.040576585377830052e+05	8.550199821632845851e+04
1.469491800624817218e-07	1.064546098868314148e+05	8.726620085061402642e+04
1.517683390283405561e-07	1.089301686127945723e+05	8.908826003734167898e+04
1.567455410205594968e-07	1.114869126235253061e+05	9.097007316663851088e+04
1.618859690178197646e-07	1.139661021215526416e+05	9.277129938773516915e+04
1.671949759731990056e-07	1.164410176106316212e+05	9.455614608301151020e+04
1.726780903884356132e-07	1.189970972896968888e+05	9.639952634717577894e+04
1.783410220710008120e-07	1.216370029166005988e+05	9.830335977292800089e+04
1.841896680799711039e-07	1.243634835408299550e+05	1.002696289054961235e+05
1.902301188668944219e-07	1.271793783662131318e+05	1.023003813071472978e+05
1.964686646180446931e-07	1.300876197075067903e+05	1.043977316894044779e+05
2.029118018046678038e-07	1.329345812373265799e+05	1.064306190621008282e+05
2.095662399480432992e-07	1.357287907756797504e+05	1.084058921826804872e+05
2.164389086064020114e-07	1.386146356667685614e+05	1.104459438557162648e+05
2.235369645909794139e-07	1.415951210674203467e+05	1.125528984764700581e+05
2.308677994187169850e-07	1.446733506877749169e+05	1.147289501091769635e+05
2.384390470093720426e-07	1.478525300233138842e+05	1.169763647718201682e+05
2.462585916350547006e-07	1.511359696928841586e+05	1.192974827958355163e+05
2.543345761304648365e-07	1.543861230929801241e+05	1.215791090115013649e+05
2.626754103723835758e-07	1.575147095497613191e+05	1.237484407101325487e+05
2.712897800372467241e-07	1.607458971606780542e+05	1.259889150602637237e+05
2.801866556459195443e-07	1.640830507030744629e+05	1.283028651660786272e+05
2.893753019050950594e-07	1.675296453012662241e+05	1.306927006452876085e+05
2.988652873550382326e-07	1.710892700453389261e+05	1.331609101383675879e+05
3.086664943337274455e-07	1.747656317286257108e+05	1.357100639000930532e+05
3.187891292677645596e-07	1.784521352203483984e+05	1.382554982577613846e+05
3.292437333007768907e-07	1.819228706997678091e+05	1.406181883094089280e+05
3.400411932703706463e-07	1.855074280187964032e+05	1.430583621479078429e+05
3.511927530450727317e-07	1.892095399341506127e+05	1.455785608332759584e+05
3.627100252330649086e-07	1.930330616173029703e+05	1.481814087589133123e+05
3.746050032748993774e-07	1.969819746690404427e+05	1.508696163844976400e+05
3.868900739327976195e-07	2.010603912656809262e+05	1.536459830585054879e+05
3.995780301895269929e-07	2.052120099230811466e+05	1.564672176867584931e+05
4.126820845702951630e-07	2.090228802511012764e+05	1.590172277615256025e+05
4.262158829015325345e-07	2.129587270499068545e+05	1.616508647330853855e+05
4.401935185208874400e-07	2.170236488893531787e+05	1.643708711230992340e+05
4.546295469532399562e-07	2.212218787507956731e+05	1.671800793934914400e+05
4.695390010680058238e-07	2.255577884350782842e+05	1.700814148960156599e+05
4.849374067335232931e-07	2.300358931150817371e+05	1.730778989185520913e+05
5.008407989848212921e-07	2.346608560375710658e+05	1.761726518313070992e+05
5.172657387216018967e-07	2.388110131919838313e+05	1.789075375154872017e+05
