# Frequency (Hz)	Imaginary Part (Ohm/m)
1000.0	148143453.22068262
1018.6101701559753	147745226.37442803
1037.566678745186	147339588.4588039
1056.875971184804	146926401.5525483
1076.5446128423157	146505525.16766104
1096.5792912678098	146076816.2016364
1116.9868184678226	145640128.8888067
1137.7741332214914	145195314.7507802
1158.9483034398106	144742222.54595736
1180.5165285688054	144280698.2181063
1202.4861420374123	143810584.8439829
1224.8646137509306	143331722.57997444
1247.6595526308697	142843948.60775146
1270.8787092020582	142389216.32456684
1294.529978227916	141966457.10412088
1318.6214013947485	141535830.26264754
1343.1611700460153	141097189.3823806
1368.1576279674719	140650385.32069454
1393.619274224142	140195266.15939412
1419.5547660501015	139731677.15306064
1445.9729217920194	139259460.67643687
1472.882723907502	138778456.1708327
1500.2933220192183	138288500.08953345
1528.2140360258693	137789425.84219214
1556.654359271062	137281063.73818743
1585.6239617711371	136765464.4704502
1615.132693503091	136327792.0073333
1645.1905877536624	135881974.38520527
1675.807864530767	135427860.02127087
1706.9949340384078	134965294.51175335
1738.7624002162504	134494120.57939547
1771.1210643450886	134014178.01998338
1804.0819287193826	133525303.64787546
1837.6562003881704	133027331.24051775
1871.8552949655793	132520091.48192616
1906.690840512252	132003411.90511727
1942.1746814890264	131477116.83346783
1978.3188827841643	130941027.3209828
2015.1357338155585	130446831.7801923
2052.6377527092523	129988485.42079419
2090.8376905557498	129521609.15765728
2129.748535745521	129046044.24782158
2169.3835183851843	128561628.99409366
2209.756114795903	128068198.69006772
2250.880052095462	127565585.5641237
2292.7693128656488	127053618.72238329
2335.438139906479	126532124.09060383
2378.9010410788933	126000924.35499156
2423.1727942376006	125459838.90191267
2468.2684522556924	124908683.7564831
2514.2033481427966	124352424.99387966
2560.9931002584594	123884638.27340321
2608.6536176225477	123408145.96246208
2657.2011053245064	122922786.04853621
2706.652070033241	122428393.50402533
2757.0233256095826	121924800.2301373
2808.3319988231724	121411834.99973272
2860.5955351757416	120889323.39910631
2913.831704832789	120357087.7686837
2968.0586086656026	119814947.14261585
3023.2946844057765	119262717.1872485
3079.5587129142264	118700210.13844647
3136.8698245668766	118127234.73775229
3195.2475057592133	117605663.69757457
3254.711605531848	117123107.92038082
3315.282342319423	116631571.6980637
3376.9803108250912	116130887.90301149
3439.8264890229243	115620886.29733905
3503.8422452906757	115101393.4750051
3569.0493456752292	114572232.80285281
3635.4699612933177	114033224.36055194
3703.126675869927	113484184.87942424
3772.0424934169973	112924927.6801305
3842.240846055061	112355262.60919692
3913.745601980384	111774995.97436133
3986.581073580439	111192644.52166204
4060.7720257003657	110707925.4442017
4136.343684063274	110214185.662232
4213.321743847289	109711257.298907
4291.732378422157	109198969.35316433
4371.602248248501	108677147.64158249
4452.958509942655	108145614.739157
4535.828825510186	107604189.91897395
4620.241371751313	107052689.09076054
4706.224849841281	106490924.73829304
4793.808495089106	105918705.8556385
4883.02208687788	105335837.88221122
4973.895958790063	104742122.63662006
5066.461008921268	104209322.4399581
5160.7487103859075	103717602.67224532
5256.791122018419	103216731.9159864
5354.620899273607	102706539.86972724
5454.271305329836	102186853.06267503
5555.7762223988775	101657494.79571566
5659.170163246242	101118285.08133489
5764.488282925873	100569040.58241963
5871.766390733255	100009574.54992233
5981.040962380945	99439696.75936374
6092.349152400711	98859213.44615482
6205.7288067765	98267927.23971432
6321.218475812449	97678321.0658337
6438.8574272404185	97192956.53103445
6558.685659571435	96698559.27965485
6680.743915695614	96194961.2113025
6805.073696735206	95681991.09720786
6931.717276155407	95159474.522005
7060.717714137772	94627233.82442825
7192.118872221193	94085088.03690568
7325.96542821523	93532852.824028
7462.302891391108	92970340.41987257
7601.17761795533	92397359.5641609
7742.636826811269	91813715.43722838
7886.728615614156	91219209.59378302
8033.501977124735	90694066.21801928
8183.00681586739	90210502.91267204
8335.293965098195	89717940.4119312
8490.415204088747	89216211.23923907
8648.423275731726	88705144.8012709
8809.37190447399	88184567.32993123
8973.31581458352	87654301.82327046
9140.310748756232	87114167.98530298
9310.413487069076	86563982.16470383
9483.681866285926	86003557.29236594
9660.174799522645	85432702.81779425
9839.952296278227	84851224.64431651
10023.075482838643	84275590.81989498
10209.606623060476	83806986.43066192
10399.609139541202	83329661.23400937
10593.1476351837	82843452.9342274
10790.287915161836	82348196.21525532
10991.097009294961	81843722.68447222
11195.643194838794	81329860.81544198
11403.99601970033	80806435.88959253
11616.22632608502	80273269.93680914
11832.40627458378	79730181.67492302
12052.609368708414	79176986.44807352
12276.910479883603	78613496.16392279
12505.385872903913	78039519.22970289
12738.113231864783	77541037.8775715
12975.171686575868	77082736.19690286
13216.641839466038	76615905.4439742
13462.60579298911	76140386.89129943
13713.147177539455	75656018.85744709
13968.351179887397	75162636.65206668
14228.30457214352	74660072.51989217
14493.09574126215	74148155.58370362
14762.81471909391	73626711.78622682
15037.553212997384	73095563.83095226
15317.404637020798	72554531.12185206
15602.46414366368	72003429.70197557
15892.828656229764	71462219.28606606
16188.596901781993	71026162.2267414
16489.86944471065	70581990.07134509
16796.74872092653	70129551.79655834
17109.339072690134	69668693.56849268
17427.746784089173	69199258.69038497
17752.08011717636	68721087.54931846
18082.44934877952	68234017.56195304
18418.96680799711	67737883.11924492
18761.746914391195	67232515.53013775
19110.90621689136	66717742.96420602
19466.56343342263	66193390.39323055
19828.83949127071	65659279.5316876
20197.857568198782	65203472.79029793
20573.743134329114	64784554.04652072
20956.623994804308	64357839.153640255
21346.630333242454	63923183.023995146
21743.8947560008	63480437.86981805
22148.55233726359	63029453.152986005
22560.74066496859	62570075.53383596
22980.599887588487	62102148.8190277
23408.272761782944	61625513.908436246
23843.904700937208	61140008.74105649
24287.643824604504	60645468.23990018
24739.64100886812	60141724.25586832
25200.049937640895	59651257.40572182
25669.027154919517	59259440.44410407
26146.732118010917	58860331.70216066
26633.327251749808	58453795.47861888
27128.978003724646	58039693.546782464
27633.852900531667	57617885.10753265
28148.123605075813	57188226.7414551
28671.964974937695	56750572.36007599
29205.55512182745	56304773.1561899
29749.075472144435	55850677.55326405
30302.71082866393	55388131.15390076
30866.649433372742	54916976.68734017
31441.08303147265	54437053.95598721
32026.206936576502	54034545.615088135
32622.220097116733	53664157.94439438
33229.325163989684	53286877.296125434
33847.72855945983	52902575.390795544
34477.640547344636	52511121.56161624
35119.275304507275	52112382.71006771
35772.850993678774	51706223.26064402
36438.58983763541	51292505.11475618
37116.71819475767	50871087.60377668
37807.466635993485	50441827.44121118
38511.070023255685	50004578.67397912
39227.76758927723	49559192.63278837
39957.803018952654	49129419.5497414
40701.42453219439	48788141.37324443
41458.88496832911	48440511.95181236
42230.441872066716	48086413.087696165
43016.35758106799	47725724.383466765
43816.89931514194	47358323.2010783
44632.33926710397	46984084.62017011
45462.95469532399	46602881.39559227
46309.02801799736	46214583.91414105
47170.84690917023	45819060.15048886
48048.704396551344	45416175.622294374
48942.89896114532	45005793.344477
49853.73463873894	44587773.78264044
50781.5211232767	44242966.62223996
51726.57387216024	43924725.95509168
52689.21421350677	43600562.77497722
53669.76945540476	43270366.862922534
54668.57299720181	42934025.94875974
55685.96444286408	42591425.67295395
56722.28971644549	42242449.54771988
57777.90117970507	41886978.917414874
58853.1577519145	41524892.91819444
59948.42503189408	41156068.43691743
61064.07542232036	40780380.069286145
62200.48825634718	40397700.07720757
63358.04992658254	40031789.804024115
64537.15401646702	39742125.51958701
65738.20143409586	39447070.53352844
66961.60054853215	39146524.52397392
68207.76732865692	38840385.302041866
69477.1254846024	38528548.77709826
70770.10661181889	38210908.921364635
72087.15033782135	37887357.73386749
73428.70447166759	37557785.20371682
74795.22515621828	37222079.27270129
76187.17702322999	36880125.797187254
77605.0333513357	36531808.50930843
79049.2762269642	36177008.97743394
80520.39670825469	35888849.448430285
82018.8949920221	35621638.00832242
83545.28058382872	35349453.717846565
85100.07247122246	35072204.031411186
86683.79930019773	34789794.681135535
88296.99955494082	34502129.64479761
89940.22174092053	34209111.11318549
91614.0245713852	33910639.45684123
93318.9771573324	33606613.192185685
95055.65920101192	33296928.947013002
96824.66119303115	32981481.425343055
98626.5846131283	32660163.371619493
100462.04213468132	32355710.9192841
102331.65783302448	32114763.995054375
104236.06739764012	31869333.007566165
106175.9183482999	31619334.50763926
108151.87025522892	31364683.493089948
110164.59496336569	31105293.379829492
112214.77682079801	30841075.972424507
114303.11291144785	30571941.434109535
116430.31329208757	30297798.256241668
118597.10123376705	30018553.22718655
120804.21346773289	29734111.400625538
123052.40043592616	29444376.063272744
125342.42654613995	29149248.70199163
127675.07043192645	28912938.985114887
130051.12521734099	28692447.864269003
132471.39878661174	28467853.366146315
134936.71405883064	28239079.126197487
137447.90926775365	28006047.35871587
140005.8382468096	27768678.8303897
142611.37071941295	27526892.833361674
145265.39259467812	27280607.15778766
147968.80626863963	27029738.063884217
150722.53093107554	26774200.253456365
153527.5028780421	26513906.84089517
156384.67583022476	26248769.323635686
159295.0212572123	25999795.276959896
162259.5287078087	25802324.564662006
165279.2061464897	25601178.888807405
168355.08029612005	25396289.857699037
171488.19698705408	25187587.806858614
174679.62151272455	24975001.775340185
177930.43899185772	24758459.4816024
181241.75473742394	24537887.298932165
184614.69463245454	24313210.230410825
188050.40551285836	24084351.88341408
191550.0555573528	23851234.443638157
195114.83468466165	23613778.648641672
198745.9549580986	23371903.760895766
202444.65099768018	23180743.625851378
206212.18039991445	23001063.414912153
210049.8241653915	22818039.324673716
213958.88713434213	22631609.124973282
217940.6984302958	22441709.427534204
221996.61191199525	22248275.664413244
226128.00663372793	22051242.06604667
230336.2873142131	21850541.638888054
234622.88481422624	21646106.142629653
238989.25662310526	21437866.06699992
243436.8873543108	21225750.60812948
247967.289250216	21009687.644476693
252582.00269627848	20808579.94640212
257282.59674479323	20648417.835878734
262070.66964838552	20485275.08122594
266947.8494034318	20319096.212149378
271915.7943036019	20149824.72604295
276976.1935036891	19977403.068777528
282130.76759394706	19801772.615131825
287381.2691851069	19622873.648859188
292729.4835042813	19440645.342383534
298177.22900196735	19255025.736117095
303726.3579703311	19065951.717393756
309378.75717301364	18873358.999009915
315136.34848664823	18677182.097366113
321001.08955431683	18524001.838350434
326974.97445117676	18378835.29220098
333060.03436245886	18230967.171926744
339258.33827409917	18080347.200773578
345571.9936762143	17926924.166328337
352003.1472796675	17770645.903106257
358553.9857459817	17611459.27481391
365226.7364308175	17449310.15628249
372023.6681413066	17284143.415064555
378947.09190746717	17115902.89268844
385999.36176797637	16944531.385563806
393182.87557057705	16769970.625531666
400500.07578736113	16608898.2280728
407953.45034524484	16479911.791372146
415545.53347188793	16348524.895136653
423278.90655735444	16214692.866405983
431156.19903182285	16078370.200848289
439180.0892596086	15939510.547288463
447353.3054498463	15798066.691948088
455678.6265841068	15653990.542392299
464158.8833612772	15507233.111177891
472796.9591600391	15357744.499196893
481595.79101923504	15205473.878710562
490558.37063650455	15050369.476067228
499687.7453854889	14892378.554098742
508987.0193519675	14770411.236118212
518459.3543892913	14653804.186867174
528107.971193433	14535027.060588202
537936.1503980698	14414039.471778532
547947.2336900292	14290800.283354346
558144.6249454955	14165267.592663724
568531.7913873753	14037398.717239194
579112.2647641759	13907150.18028536
589889.6425508494	13774477.69589626
600867.5891719692	13639336.153997645
612049.837247669	13501679.605009185
623440.1888627863	13361461.244220939
635042.5168595961	13233183.690106684
646860.7661546321	13129791.23752954
658898.9550799957	13024474.633817073
671161.1767496272	12917198.070189303
683651.6004510238	12807925.071458634
696374.4730628222	12696618.483628158
709334.1204987989	12583240.461258668
722534.9491787221	12467752.454600919
735981.4475265755	12350115.196488326
749678.1874966878	12230288.688985541
763629.8261282243	12108232.189788958
777841.1071286482	11983904.198373672
792316.8624866261	11857262.441882992
807062.0141149492	11760555.926695332
822081.575524054	11667245.32663441
837380.6535266489	11572198.200429015
852964.4499741016	11475382.231032101
868838.2635251193	11376764.49997088
885007.4914473438	11276311.476154234
901477.6314524917	11173989.004471667
918254.2835656281	11069762.294180315
935343.1520292377	10963595.907075636
952750.0472427299	10855453.745442085
970480.8877380306	10745299.039779508
988541.7021919573	10633094.33630108
1006938.6314760271	10531315.633281743
1025677.9307444209	10448692.981703619
1044765.9715608053	10364532.708520887
1064209.2440647245	10278806.198333858
1084014.359178331	10191484.303205373
1104188.0508541602	10102537.332750209
1124737.1783647507	10011935.044040011
1145668.7286348727	9919646.631320378
1166989.8186171474	9825640.715536624
1188707.6977119034	9729885.333664464
1210829.7502320393	9632347.927842319
1233363.4979137746	9532995.334301246
1256316.6024741214	9431793.772088928
1279696.8682159416	9355327.648177058
1303512.2446815087	9280843.905485429
1327770.829355429	9204974.00766846
1352480.8704178738	9127692.158143394
1377650.769549055	9048972.080248697
1403289.084785873	8968787.008309694
1429404.533431761	8887109.67853794
1456005.9950206485	8803912.319761245
1483102.514336103	8719166.643981187
1510703.3044866556	8632843.836754868
1538817.7500383465	8544914.547397738
1567455.410205595	8455348.87900398
1596626.022101425	8374792.207887434
1626339.5040481905	8308898.470303973
1656605.9589499151	8241778.439051868
1687435.6777273756	8173409.29259729
1718839.1428171454	8103767.784693776
1750827.0317357269	8032830.2364782505
1783410.220710006	7960572.528419999
1816599.7883753285	7886970.09211969
1850407.019542302	7811997.901955947
1884843.4090337954	7735630.4665762875
1919920.6655932867	7657841.82022983
1955650.715865947	7578605.513938678
1992045.7084538713	7497894.606504901
2029118.0180466783	7437541.777822529
2066880.2496290822	7378181.335735704
2105345.242766708	7317716.1857211
2144526.0759716653	7256125.768976234
2184436.0711494284	7193389.144095756
2225088.7981283693	7129484.979951241
2266498.079273693	7064391.548438328
2308677.994187172	6998086.717088913
2351642.884494346	6930547.941545934
2395407.358720879	6861752.25789796
2439986.29725955	6791676.274871313
2485394.857429798	6720296.165876691
2531648.478631358	6656638.105242598
2578762.8875937983	6604153.5136111025
2626754.1037238385	6550692.174798768
2675638.4445520453	6496235.911374378
2725432.531281028	6440766.207621601
2776153.2944368036	6384264.203243475
2827817.979625338	6326710.686949734
2880444.1533962977	6268086.089924675
2934049.709215787	6208370.479173662
2988652.873550383	6147543.550745604
3044272.2120643063	6085584.62282943
3100926.6359319235	6022472.628722062
3158635.408267819	5958186.109665466
3217418.1506763715	5910607.683274737
3277294.849923382	5863348.486640588
3338285.8647317644	5815209.788315637
3400411.9327037027	5766175.220623785
3463694.1773717343	5716228.111283648
3528154.1153808828	5665351.477739897
3593813.6638046256	5613528.021388936
3660695.147596906	5560740.12169721
3728821.30718283	5506969.83021005
3798215.306190736	5452198.864448967
3868900.7393279755	5396408.601695473
3940901.6404034477	5339580.072659086
4014242.490499326	5289328.241644048
4088948.226294856	5247558.449515133
4165044.248545185	5205011.314447313
4242556.430717777	5161672.369956235
4321511.127789762	5117526.8803338
4401935.1852088785	5072559.8356378665
4483855.948021181	5026755.94658874
4567301.270168747	4980099.63937059
4652299.523960189	4932575.05033627
4738879.609717651	4884166.020613428
4827070.965603188	4834856.090610354
4916903.577628021	4784628.4944195505
5008407.989848212	4733466.154117103
5101615.314749833	4695987.921904772
5196557.243827657	4658387.731645292
5293266.058360566	4620087.795447181
5391774.640387494	4581075.090919467
5492116.483887789	4541336.353322242
5594325.706169377	4500858.071056551
5698437.0594691355	4459626.481070275
5804485.942768984	4417627.564178547
5912508.413831869	4374847.040297109
6022541.201461928	4331270.363586866
6134621.717992506	4286882.717508217
6248788.072006888	4241669.0097832205
6365079.081295578	4202027.424353021
6483534.286054714	4168802.431117943
6604193.962330305	4134959.115105318
6727099.135712336	4100485.9692230616
6852291.595284057	4065371.2722301227
6979813.907830667	4029603.0847511683
7109709.432312423	3993169.2452170635
7242022.334607315	3956057.3657297874
7376797.60252773	3918254.82785045
7514081.061116962	3879748.778308851
7653919.388230155	3840526.124633243
7796360.130405221	3800573.53069877
7941451.71902934	3759877.4121929975
8089243.486805938	3730371.087187703
8239785.684528512	3700468.273109895
8393129.498166373	3670008.9625739534
8549327.066268368	3638982.7990861107
8708431.497690724	3607379.2334164674
8870496.889654402	3575187.5200121757
9035578.34613892	3542396.713343821
9203731.99661823	3508995.664183811
9375015.01514529	3474973.015815549
9549485.639791967	3440317.2001719973
9727203.192450536	3405016.433902425
9908228.099003786	3369058.71436594
10092621.909870483	3337801.551425089
10280447.320933098	3311382.158757173
10471768.194855202	3284471.0966962916
10666649.582795387	3257059.215191376
10865157.746525371	3229137.1939073596
11067360.180959744	3200695.5390561465
11273325.63710487	3171724.580168638
11483124.14543511	3142214.466806651
11696827.039703846	3112155.1652136752
11914506.981197748	3081536.454903285
12136237.983442418	3050347.9251840543
12362095.437367693	3018578.971619842
12592156.13694151	2986337.9471911974
12826498.3052806	2962997.39725198
13065201.621247198	2939222.4757068623
13308347.24654076	2915005.0988263404
13556017.853293689	2890337.0324413446
13808297.652180923	2865209.8891435037
14065272.421052363	2839615.125433358
14327029.534098294	2813544.0388154653
14593657.991557576	2786987.7648394573
14865248.449978571	2759937.27408605
15141893.25304352	2732383.3690969204
15423686.462966273	2704316.681247481
15710723.892474487	2675727.6675614486
16003103.137387017	2651089.382925516
16300923.609797413	2630085.9818075695
16604286.571875297	2608691.7038209634
16913295.17029647	2586899.2746806624
17228054.471313924	2564701.2847259482
17548671.49648152	2542090.1864010524
17875255.259042352	2519058.2916889214
18207916.800994623	2495597.769497183
18546769.230846975	2471700.64299551
18891927.762076646	2447358.786903399
19243509.75230332	2422563.9247274976
19601634.743191857	2397307.625947515
19966424.501097932	2371865.4711619173
20338003.0584698	2353311.1032501715
20716496.75602067	2334411.43539445
21102034.285685964	2315160.0415040404
21494746.734379806	2295550.375897593
21894767.628566206	2275575.771077508
