# Frequency (Hz)	Real Part (Ohm/m)
1000.0	116831.95476241343
1018.6101701559753	117341.23017077525
1037.566678745186	117859.98328114297
1056.875971184804	118388.39047516356
1076.5446128423157	118926.63141697654
1096.5792912678098	119474.88911430154
1116.9868184678226	120033.34998066306
1137.7741332214914	120602.20389877308
1158.9483034398106	121181.64428509297
1180.5165285688054	121771.86815559756
1202.4861420374123	122373.07619276234
1224.8646137509306	122985.47281379788
1247.6595526308697	123609.26624015387
1270.8787092020582	124152.26357694459
1294.529978227916	124616.65469182064
1318.6214013947485	125089.68820436347
1343.1611700460153	125571.52495106416
1368.1576279674719	126062.3287616084
1393.619274224142	126562.26651458004
1419.5547660501015	127071.50819420189
1445.9729217920194	127590.22694813201
1472.882723907502	128118.59914633587
1500.2933220192183	128656.804441054
1528.2140360258693	129205.02582788566
1556.654359271062	129763.44970800944
1585.6239617711371	130327.7686294186
1615.132693503091	130725.56774039438
1645.1905877536624	131130.7699605133
1675.807864530767	131543.51306289624
1706.9949340384078	131963.93738464522
1738.7624002162504	132392.18587455963
1771.1210643450886	132828.40414174044
1804.0819287193826	133272.7405050986
1837.6562003881704	133725.3460437853
1871.8552949655793	134186.37464856057
1906.690840512252	134655.98307411745
1942.1746814890264	135134.33099238062
1978.3188827841643	135621.58104679643
2015.1357338155585	136022.96860870474
2052.6377527092523	136349.38540835498
2090.8376905557498	136681.87688018847
2129.748535745521	137020.5560748882
2169.3835183851843	137365.53814702958
2209.756114795903	137716.94039423426
2250.880052095462	138074.88229705262
2292.7693128656488	138439.48555958841
2335.438139906479	138810.8741508794
2378.9010410788933	139189.17434704828
2423.1727942376006	139574.5147742379
2468.2684522556924	139967.0264523455
2514.2033481427966	140358.5060299486
2560.9931002584594	140597.40267232558
2608.6536176225477	140840.74522186685
2657.2011053245064	141088.61641766128
2706.652070033241	141341.10053858624
2757.0233256095826	141598.28343196324
2808.3319988231724	141860.25254274724
2860.5955351757416	142127.0969432585
2913.831704832789	142398.90736346852
2968.0586086656026	142675.77622184873
3023.2946844057765	142957.79765679434
3079.5587129142264	143245.0675586319
3136.8698245668766	143537.68360222335
3195.2475057592133	143749.57605944452
3254.711605531848	143897.7707301934
3315.282342319423	144048.72332898114
3376.9803108250912	144202.4851813178
3439.8264890229243	144359.10856788993
3503.8422452906757	144518.6467423366
3569.0493456752292	144681.15394935606
3635.4699612933177	144846.68544314973
3703.126675869927	145015.2975062091
3772.0424934169973	145187.04746845234
3842.240846055061	145361.99372671722
3913.745601980384	145540.19576461654
3986.581073580439	145711.72774991914
4060.7720257003657	145762.14370113204
4136.343684063274	145813.49790177555
4213.321743847289	145865.80781283128
4291.732378422157	145919.09122023257
4371.602248248501	145973.36624091215
4452.958509942655	146028.65132896174
4535.828825510186	146084.96528190706
4620.241371751313	146142.32724709882
4706.224849841281	146200.7567282233
4793.808495089106	146260.2735919336
4883.02208687788	146320.89807460472
4973.895958790063	146382.65078921395
5066.461008921268	146381.0982647009
5160.7487103859075	146333.8425256531
5256.791122018419	146285.7073492608
5354.620899273607	146236.67636904537
5454.271305329836	146186.7329139452
5555.7762223988775	146135.8600026474
5659.170163246242	146084.04033781405
5764.488282925873	146031.25630020074
5871.766390733255	145977.4899426659
5981.040962380945	145922.7229840687
6092.349152400711	145866.93680305305
6205.7288067765	145810.11243171635
6321.218475812449	145744.08417448503
6438.8574272404185	145602.82986387608
6558.685659571435	145458.94678651146
6680.743915695614	145312.38602059454
6805.073696735206	145163.09773388566
6931.717276155407	145011.03116675888
7060.717714137772	144856.13461494283
7192.118872221193	144698.3554119409
7325.96542821523	144537.63991112405
7462.302891391108	144373.93346749025
7601.17761795533	144207.18041908482
7742.636826811269	144037.32406807455
7886.728615614156	143864.3066614699
8033.501977124735	143656.64795060543
8183.00681586739	143425.06175826688
8335.293965098195	143189.1657074831
8490.415204088747	142948.87959105513
8648.423275731726	142704.12170911432
8809.37190447399	142454.80884134356
8973.31581458352	142200.85621868153
9140.310748756232	141942.1774945002
9310.413487069076	141678.68471524614
9483.681866285926	141410.28829053527
9660.174799522645	141136.89696269127
9839.952296278227	140858.41777571695
10023.075482838643	140572.33604062346
10209.606623060476	140263.83317093865
10399.609139541202	139949.5890103554
10593.1476351837	139629.49671247325
10790.287915161836	139303.44744246185
10991.097009294961	138971.3303400563
11195.643194838794	138633.03248186322
11403.99601970033	138288.43884296584
11616.22632608502	137937.4322578139
11832.40627458378	137579.8933803864
12052.609368708414	137215.70064361262
12276.910479883603	136844.73021803785
12505.385872903913	136466.85596972037
12738.113231864783	136089.76536906578
12975.171686575868	135710.14255845288
13216.641839466038	135323.4549027394
13462.60579298911	134929.57092395585
13713.147177539455	134528.35669730543
13968.351179887397	134119.67580562807
14228.30457214352	133703.3892930171
14493.09574126215	133279.3556175728
14762.81471909391	132847.43060327656
15037.553212997384	132407.4673909697
15317.404637020798	131959.31638841945
15602.46414366368	131502.82521945614
15892.828656229764	131044.17380907969
16188.596901781993	130613.2187668771
16489.86944471065	130174.24357800957
16796.74872092653	129727.09898618297
17109.339072690134	129271.63295741817
17427.746784089173	128807.6906283578
17752.08011717636	128335.11425361095
18082.44934877952	127853.74315211846
18418.96680799711	127363.41365251904
18761.746914391195	126863.95903749956
19110.90621689136	126355.20948710939
19466.56343342263	125836.9920210196
19828.83949127071	125309.13043970817
20197.857568198782	124817.71712696775
20573.743134329114	124340.94919577624
20956.623994804308	123855.30853226031
21346.630333242454	123360.63001336165
21743.8947560008	122856.74544305382
22148.55233726359	122343.48349515362
22560.74066496859	121820.66965506838
22980.599887588487	121288.12616045926
23408.272761782944	120745.67194079996
23843.904700937208	120193.12255581102
24287.643824604504	119630.29013274788
24739.64100886812	119056.98330252219
25200.049937640895	118489.30814658599
25669.027154919517	117988.6285612692
26146.732118010917	117478.6312436761
26633.327251749808	116959.14278922351
27128.978003724646	116429.98656623949
27633.852900531667	115890.98265590664
28148.123605075813	115341.9477910877
28671.964974937695	114782.695294013
29205.55512182745	114213.03501280757
29749.075472144435	113632.77325683771
30302.71082866393	113041.71273085441
30866.649433372742	112439.65246790995
31441.08303147265	111826.38776102799
32026.206936576502	111279.43401897217
32622.220097116733	110757.95746626651
33229.325163989684	110226.77614618279
33847.72855945983	109685.70945134849
34477.640547344636	109134.57341325766
35119.275304507275	108573.18063971886
35772.850993678774	108001.34025114011
36438.58983763541	107418.85781562798
37116.71819475767	106825.53528287799
37807.466635993485	106221.1709168362
38511.070023255685	105605.55922710616
39227.76758927723	104978.49089908018
39957.803018952654	104365.24083664287
40701.42453219439	103843.47575854494
41458.88496832911	103312.00054356222
42230.441872066716	102770.63448439496
43016.35758106799	102219.19351074989
43816.89931514194	101657.49012675436
44632.33926710397	101085.33334720551
45462.95469532399	100502.52863263333
46309.02801799736	99908.87782315529
47170.84690917023	99304.17907109951
48048.704396551344	98688.22677237498
48942.89896114532	98060.8114965632
49853.73463873894	97421.71991571011
50781.5211232767	96869.47691730672
51726.57387216024	96347.16872316226
52689.21421350677	95815.14028465099
53669.76945540476	95273.21070637119
54668.57299720181	94721.19572642705
55685.96444286408	94158.90765377751
56722.28971644549	93586.1553044192
57777.90117970507	93002.74393638219
58853.1577519145	92408.47518351507
59948.42503189408	91803.14698803872
61064.07542232036	91186.55353184434
62200.48825634718	90558.48516651304
63358.04992658254	89951.21066730568
64537.15401646702	89445.55539121962
65738.20143409586	88930.48978440532
66961.60054853215	88405.83871900673
68207.76732865692	87871.42380800849
69477.1254846024	87327.06334458274
70770.10661181889	86772.57224030647
72087.15033782135	86207.76196222962
73428.70447166759	85632.44046877192
74795.22515621828	85046.41214442653
76187.17702322999	84449.4777332489
77605.0333513357	83841.43427110731
79049.2762269642	83222.07501667303
80520.39670825469	82700.23011747426
82018.8949920221	82207.84392158694
83545.28058382872	81706.29433481176
85100.07247122246	81195.41082488502
86683.79930019773	80675.01968590869
88296.99955494082	80144.94397928833
89940.22174092053	79605.00347357216
91614.0245713852	79055.01458317057
93318.9771573324	78494.7903059347
95055.65920101192	77924.14015957399
96824.66119303115	77342.87011688996
98626.5846131283	76750.78253980495
100462.04213468132	76184.40655250754
102331.65783302448	75718.70293356305
104236.06739764012	75244.33249102776
106175.9183482999	74761.13393383991
108151.87025522892	74268.94296928363
110164.59496336569	73767.59224712777
112214.77682079801	73256.91130272478
114303.11291144785	72736.72649905103
116430.31329208757	72206.86096766836
118597.10123376705	71667.13454858681
120804.21346773289	71117.36372900853
123052.40043592616	70557.36158093112
125342.42654613995	69986.93769759027
127675.07043192645	69516.35954321918
130051.12521734099	69071.74826566735
132471.39878661174	68618.86269658706
134936.71405883064	68157.548850005
137447.90926775365	67687.64987424275
140005.8382468096	67209.00599858543
142611.37071941295	66721.45447895797
145265.39259467812	66224.82954259048
147968.80626863963	65718.9623316535
150722.53093107554	65203.680845844654
153527.5028780421	64678.80988390668
156384.67583022476	64144.170984057055
159295.0212572123	63637.96234976534
162259.5287078087	63224.45447703306
165279.2061464897	62803.25115242835
168355.08029612005	62374.20916228258
171488.19698705408	61937.18262769604
174679.62151272455	61492.02295493823
177930.43899185772	61038.57878492381
181241.75473742394	60576.69594174913
184614.69463245454	60106.21738027095
188050.40551285836	59626.98313270882
191550.0555573528	59138.83025425503
195114.83468466165	58641.5927676711
198745.9549580986	58135.10160685386
202444.65099768018	57724.8158661263
206212.18039991445	57335.66207293586
210049.8241653915	56939.26606143737
213958.88713434213	56535.49305271573
217940.6984302958	56124.20575959734
221996.61191199525	55705.264339971116
226128.00663372793	55278.52634924017
230336.2873142131	54843.84669188975
234622.88481422624	54401.0775721527
238989.25662310526	53950.06844375748
243436.8873543108	53490.665958741025
247967.289250216	53022.713915308246
252582.00269627848	52584.0025521521
257282.59674479323	52226.49581867716
262070.66964838552	51862.3358240603
266947.8494034318	51491.39874997971
271915.7943036019	51113.558473833225
276976.1935036891	50728.68652585593
282130.76759394706	50336.65204543851
287381.2691851069	49937.321736633465
292729.4835042813	49530.55982283321
298177.22900196735	49116.228000604075
303726.3579703311	48694.185392662264
309378.75717301364	48264.28849997359
315136.34848664823	47826.391152962395
321001.08955431683	47477.374278940035
326974.97445117676	47144.46083155766
333060.03436245886	46805.35180827233
339258.33827409917	46459.931908362225
345571.9936762143	46108.0836853395
352003.1472796675	45749.68750701733
358553.9857459817	45384.62151483325
365226.7364308175	45012.7615824165
372023.6681413066	44633.98127338327
378947.09190746717	44248.15179834718
385999.36176797637	43855.14197112955
393182.87557057705	43454.81816415435
400500.07578736113	43083.09737746706
407953.45034524484	42780.03229341453
415545.53347188793	42471.327116579414
423278.90655735444	42156.87688387544
431156.19903182285	41836.57467883519
439180.0892596086	41510.31159525784
447353.3054498463	41177.9767001795
455678.6265841068	40839.45699615495
464158.8833612772	40494.63738283742
472796.9591600391	40143.40061784286
481595.79101923504	39785.627276886764
490558.37063650455	39421.1957131782
499687.7453854889	39049.98201605876
508987.0193519675	38758.450240878155
518459.3543892913	38478.449565160496
528107.971193433	38193.23802922397
537936.1503980698	37902.71865807322
547947.2336900292	37606.792671991716
558144.6249454955	37305.35945295572
568531.7913873753	36998.316510422745
579112.2647641759	36685.55944648406
589889.6425508494	36366.98192036801
600867.5891719692	36042.47561228302
612049.837247669	35711.93018658796
623440.1888627863	35375.23325427636
635042.5168595961	35065.518795760705
646860.7661546321	34812.35980769575
658898.9550799957	34554.48948778636
671161.1767496272	34291.820157345355
683651.6004510238	34024.262505970015
696374.4730628222	33751.72556117608
709334.1204987989	33474.11665746574
722534.9491787221	33191.34140482051
735981.4475265755	32903.303656607706
749678.1874966878	32609.90547688926
763629.8261282243	32311.04710712283
777841.1071286482	32006.626932242514
792316.8624866261	31696.541446108728
807062.0141149492	31456.33481442335
822081.575524054	31223.829556997887
837380.6535266489	30986.9973371696
852964.4499741016	30745.757629431893
868838.2635251193	30500.028409684783
885007.4914473438	30249.726127345908
901477.6314524917	29994.765676942276
918254.2835656281	29735.060369173592
935343.1520292377	29470.521901436918
952750.0472427299	29201.060327802843
970480.8877380306	28926.584028432964
988541.7021919573	28646.99967842803
1006938.6314760271	28392.188889612615
1025677.9307444209	28183.06007923051
1044765.9715608053	27970.03934610264
1064209.2440647245	27753.054260884546
1084014.359178331	27532.031046309232
1104188.0508541602	27306.894552102247
1124737.1783647507	27077.568229429755
1145668.7286348727	26843.974104871053
1166989.8186171474	26606.032753906908
1188707.6977119034	26363.663273914175
1210829.7502320393	26116.783256658167
1233363.4979137746	25865.308760272907
1256316.6024741214	25609.154280720006
1279696.8682159416	25413.27966677299
1303512.2446815087	25222.081452750204
1327770.829355429	25027.325007430936
1352480.8704178738	24828.944111525307
1377650.769549055	24626.871313391148
1403289.084785873	24421.03790609985
1429404.533431761	24211.373904075073
1456005.9950206485	23997.808019297034
1483102.514336103	23780.26763706376
1510703.3044866556	23558.67879130131
1538817.7500383465	23332.966139414573
1567455.410205595	23103.05293666987
1596626.022101425	22895.41854600314
1626339.5040481905	22724.12541911088
1656605.9589499151	22549.644497980575
1687435.6777273756	22371.91645721909
1718839.1428171454	22190.880867377546
1750827.0317357269	22006.47617440474
1783410.220710006	21818.63967871819
1816599.7883753285	21627.307513885375
1850407.019542302	21432.414624908728
1884843.4090337954	21233.894746106034
1919920.6655932867	21031.68037857946
1955650.715865947	20825.702767265273
1992045.7084538713	20615.891877556165
2029118.0180466783	20457.431749147123
2066880.2496290822	20301.370115468897
2105345.242766708	20142.404148233076
2144526.0759716653	19980.47979729803
2184436.0711494284	19815.542006639644
2225088.7981283693	19647.534695631977
2266498.079273693	19476.40073997901
2308677.994187172	19302.081952291854
2351642.884494346	19124.519062304495
2395407.358720879	18943.65169672105
2439986.29725955	18759.41835868845
2485394.857429798	18571.756406886663
2531648.478631358	18403.807998859007
2578762.8875937983	18264.421209149976
2626754.1037238385	18122.440407566937
2675638.4445520453	17977.81731910757
2725432.531281028	17830.50277036349
2776153.2944368036	17680.44667280082
2827817.979625338	17527.598005729596
2880444.1533962977	17371.90479895603
2934049.709215787	17213.314115112298
2988652.873550383	17051.772031657078
3044272.2120643063	16887.223622541387
3100926.6359319235	16719.6129395332
3158635.408267819	16548.882993194227
3217418.1506763715	16421.47509872282
3277294.849923382	16294.824752801038
3338285.8647317644	16165.817422391323
3400411.9327037027	16034.409243611342
3463694.1773717343	15900.555536264352
3528154.1153808828	15764.21078864764
3593813.6638046256	15625.328642077908
3660695.147596906	15483.86187512887
3728821.30718283	15339.762387575525
3798215.306190736	15192.981184039392
3868900.7393279755	15043.468357329772
3940901.6404034477	14891.17307147458
4014242.490499326	14756.098618287451
4088948.226294856	14643.249237173424
4165044.248545185	14528.299709874846
4242556.430717777	14411.2109523139
4321511.127789762	14291.9431530514
4401935.1852088785	14170.455759750479
4483855.948021181	14046.70746538845
4567301.270168747	13920.6561942118
4652299.523960189	13792.259087430195
4738879.609717651	13661.472488643847
4827070.965603188	13528.251928999949
4916903.577628021	13392.552112072835
5008407.989848212	13254.326898462541
5101615.314749833	13152.37401565339
5196557.243827657	13050.051202589395
5293266.058360566	12945.82414456343
5391774.640387494	12839.65740325277
5492116.483887789	12731.51488082139
5594325.706169377	12621.359807646477
5698437.0594691355	12509.154729816235
5804485.942768984	12394.861496395191
5912508.413831869	12278.441246452536
6022541.201461928	12159.854395848819
6134621.717992506	12039.060623777119
6248788.072006888	11916.018859053382
6365079.081295578	11807.865455475814
6483534.286054714	11716.861584681788
6604193.962330305	11624.16411636741
6727099.135712336	11529.741532394686
6852291.595284057	11433.56172806766
6979813.907830667	11335.59200121653
7109709.432312423	11235.799041078586
7242022.334607315	11134.148916972086
7376797.60252773	11030.6070667596
7514081.061116962	10925.138285096393
7653919.388230155	10817.70671146028
7796360.130405221	10708.275817958696
7941451.71902934	10596.808396908706
8089243.486805938	10515.529019296024
8239785.684528512	10433.149181828016
8393129.498166373	10349.236241567298
8549327.066268368	10263.76166721006
8708431.497690724	10176.696396480003
8870496.889654402	10088.010826246995
9035578.34613892	9997.67480246157
9203731.99661823	9905.657609902275
9375015.01514529	9811.927961732183
9549485.639791967	9716.453988860989
9727203.192450536	9619.203229109196
9908228.099003786	9520.142616170622
10092621.909870483	9433.845546347955
10280447.320933098	9360.684844896392
10471768.194855202	9286.162610342084
10666649.582795387	9210.253504322316
10865157.746525371	9132.931716923134
11067360.180959744	9054.17095790368
11273325.63710487	8973.944447757269
11483124.14543511	8892.224908606013
11696827.039703846	8808.984554926083
11914506.981197748	8724.195084100325
12136237.983442418	8637.82766679506
12362095.437367693	8549.852937157817
12592156.13694151	8460.567240545908
12826498.3052806	8395.633204744907
13065201.621247198	8329.490735488736
13308347.24654076	8262.117343625165
13556017.853293689	8193.490121475033
13808297.652180923	8123.585735043356
14065272.421052363	8052.380416085536
14327029.534098294	7979.849954025902
14593657.991557576	7905.9696877258375
14865248.449978571	7830.714497098768
15141893.25304352	7754.058794569008
15423686.462966273	7675.976516371745
15710723.892474487	7596.441113691064
16003103.137387017	7527.77172462891
16300923.609797413	7469.098190947574
16604286.571875297	7409.332732820776
16913295.17029647	7348.455029348787
17228054.471313924	7286.44438145648
17548671.49648152	7223.279704855408
17875255.259042352	7158.939522874952
18207916.800994623	7093.401959159971
18546769.230846975	7026.644730232646
18891927.762076646	6958.645137915842
19243509.75230332	6889.3800616154795
19601634.743191857	6818.825950459307
19966424.501097932	6747.745545252158
20338003.0584698	6695.72227710004
20716496.75602067	6642.73084707554
21102034.285685964	6588.753237521471
21494746.734379806	6533.771095468992
