# Frequency (Hz)	Imaginary Part (Ohm/m)
1000.0	22561331.068212178
1018.6101701559753	22522640.486437812
1037.566678745186	22483229.86635319
1056.875971184804	22443085.80792285
1076.5446128423157	22402194.66173436
1096.5792912678098	22360542.52435743
1116.9868184678226	22318115.233616564
1137.7741332214914	22274898.36377574
1158.9483034398106	22230877.22063358
1180.5165285688054	22186036.83652708
1202.4861420374123	22140361.9652425
1224.8646137509306	22093837.07683146
1247.6595526308697	22046446.352330603
1270.8787092020582	22002351.59740909
1294.529978227916	21961447.15607301
1318.6214013947485	21919781.476123523
1343.1611700460153	21877340.390780512
1368.1576279674719	21834109.469617665
1393.619274224142	21790074.013655983
1419.5547660501015	21745219.05036596
1445.9729217920194	21699529.328576762
1472.882723907502	21652989.313290685
1500.2933220192183	21605583.18040108
1528.2140360258693	21557294.811311968
1556.654359271062	21508107.78745754
1585.6239617711371	21458223.1198096
1615.132693503091	21415980.49570193
1645.1905877536624	21372951.729171794
1675.807864530767	21329122.18997492
1706.9949340384078	21284476.975595735
1738.7624002162504	21239000.9061803
1771.1210643450886	21192678.519375026
1804.0819287193826	21145494.06506928
1837.6562003881704	21097431.500040166
1871.8552949655793	21048474.48249774
1906.690840512252	20998606.366528526
1942.1746814890264	20947810.196435757
1978.3188827841643	20896068.7009743
2015.1357338155585	20848377.59069203
2052.6377527092523	20804152.661259227
2090.8376905557498	20759104.69836454
2129.748535745521	20713218.38521521
2169.3835183851843	20666478.11997034
2209.756114795903	20618868.010436125
2250.880052095462	20570371.868662346
2292.7693128656488	20520973.205438234
2335.438139906479	20470655.22468604
2378.9010410788933	20419400.817750156
2423.1727942376006	20367192.55757995
2468.2684522556924	20314012.692804422
2514.2033481427966	20260334.861713476
2560.9931002584594	20215087.404816777
2608.6536176225477	20168997.885048114
2657.2011053245064	20122050.631474134
2706.652070033241	20074229.6815228
2757.0233256095826	20025518.775555857
2808.3319988231724	19975901.351340402
2860.5955351757416	19925360.538417604
2913.831704832789	19873879.152366485
2968.0586086656026	19821439.688961096
3023.2946844057765	19768024.318218846
3079.5587129142264	19713614.878338125
3136.8698245668766	19658192.869523145
3195.2475057592133	19607591.04502663
3254.711605531848	19560640.90062409
3315.282342319423	19512817.006045368
3376.9803108250912	19464103.100651015
3439.8264890229243	19414482.621188305
3503.8422452906757	19363938.696159575
3569.0493456752292	19312454.14008572
3635.4699612933177	19260011.447662912
3703.126675869927	19206592.787810687
3772.0424934169973	19152179.9976091
3842.240846055061	19096754.576123204
3913.745601980384	19040297.678112496
3986.581073580439	18983603.108564183
4060.7720257003657	18935973.457864165
4136.343684063274	18887457.411260143
4213.321743847289	18838038.472773522
4291.732378422157	18787699.839432746
4371.602248248501	18736424.395560067
4452.958509942655	18684194.706952102
4535.828825510186	18630993.01495195
4620.241371751313	18576801.230411086
4706.224849841281	18521600.927538868
4793.808495089106	18465373.33763753
4883.02208687788	18408099.342720665
4973.895958790063	18349759.469012894
5066.461008921268	18296993.730302073
5160.7487103859075	18247965.376781724
5256.791122018419	18198024.597259894
5354.620899273607	18147154.41133344
5454.271305329836	18095337.52259103
5555.7762223988775	18042556.31273217
5659.170163246242	17988792.8355768
5764.488282925873	17934028.810963385
5871.766390733255	17878245.618533496
5981.040962380945	17821424.291400637
6092.349152400711	17763545.50970135
6205.7288067765	17704589.59402622
6321.218475812449	17645704.585640498
6438.8574272404185	17596333.98621543
6558.685659571435	17546044.591534372
6680.743915695614	17494819.30266125
6805.073696735206	17442640.70244592
6931.717276155407	17389491.04960207
7060.717714137772	17335352.27267507
7192.118872221193	17280205.963897422
7325.96542821523	17224033.37292995
7462.302891391108	17166815.400486473
7601.17761795533	17108532.59183984
7742.636826811269	17049165.130207118
7886.728615614156	16988692.830011696
8033.501977124735	16934496.348032206
8183.00681586739	16884017.018157933
8335.293965098195	16832598.25936533
8490.415204088747	16780222.588722397
8648.423275731726	16726872.19793676
8809.37190447399	16672528.947300721
8973.31581458352	16617174.35952351
9140.310748756232	16560789.613448855
9310.413487069076	16503355.537655551
9483.681866285926	16444852.603938974
9660.174799522645	16385260.92067131
9839.952296278227	16324560.226038162
10023.075482838643	16264270.41884167
10209.606623060476	16213742.368840912
10399.609139541202	16162273.983232005
10593.1476351837	16109847.762209257
10790.287915161836	16056445.880292641
10991.097009294961	16002050.18026691
11195.643194838794	15946642.167007938
11403.99601970033	15890203.001194218
11616.22632608502	15832713.492901245
11832.40627458378	15774154.095076757
12052.609368708414	15714504.89689452
12276.910479883603	15653745.616984444
12505.385872903913	15591855.596536687
12738.113231864783	15536865.769680861
12975.171686575868	15485473.536268251
13216.641839466038	15433124.884647137
13462.60579298911	15379802.015711913
13713.147177539455	15325486.799112603
13968.351179887397	15270160.767090324
14228.30457214352	15213805.108198052
14493.09574126215	15156400.660904549
14762.81471909391	15097927.907079192
15037.553212997384	15038366.965355664
15317.404637020798	14977697.584372012
15602.46414366368	14915899.135884998
15892.828656229764	14854867.317412557
16188.596901781993	14803661.742540317
16489.86944471065	14751503.223206772
16796.74872092653	14698374.024953349
17109.339072690134	14644256.083280174
17427.746784089173	14589130.997503975
17752.08011717636	14532980.02450161
18082.44934877952	14475784.072337259
18418.96680799711	14417523.69377089
18761.746914391195	14358179.079646047
19110.90621689136	14297730.05215451
19466.56343342263	14236156.057975577
19828.83949127071	14173436.1612878
20197.857568198782	14118167.932653405
20573.743134329114	14066302.5561836
20956.623994804308	14013471.956232488
21346.630333242454	13959658.16982684
21743.8947560008	13904842.899699448
22148.55233726359	13849007.508067843
22560.74066496859	13792133.010297248
22980.599887588487	13734200.068445604
23408.272761782944	13675188.98468846
23843.904700937208	13615079.69462151
24287.643824604504	13553851.76043846
24739.64100886812	13491484.363981972
25200.049937640895	13430248.28254528
25669.027154919517	13378777.825868327
26146.732118010917	13326349.495234609
26633.327251749808	13272945.464446813
27128.978003724646	13218547.575559031
27633.852900531667	13163137.332702925
28148.123605075813	13106695.895798877
28671.964974937695	13049204.074150207
29205.55512182745	12990642.319918074
29749.075472144435	12930990.72147504
30302.71082866393	12870228.99663492
30866.649433372742	12808336.485756544
31441.08303147265	12745292.144719345
32026.206936576502	12690211.549146127
32622.220097116733	12638297.526593631
33229.325163989684	12585417.375247963
33847.72855945983	12531553.115287874
34477.640547344636	12476686.432284603
35119.275304507275	12420798.670974746
35772.850993678774	12363870.828917272
36438.58983763541	12305883.550032508
37116.71819475767	12246817.118020806
37807.466635993485	12186651.449658865
38511.070023255685	12125366.087971162
39227.76758927723	12062940.195274366
39957.803018952654	12002022.974980557
40701.42453219439	11950752.822228367
41458.88496832911	11898528.523209544
42230.441872066716	11845332.321099704
43016.35758106799	11791146.128616944
43816.89931514194	11735951.52187198
44632.33926710397	11679729.7341038
45462.95469532399	11622461.649298782
46309.02801799736	11564127.795691034
47170.84690917023	11504708.339141784
48048.704396551344	11444183.076395588
48942.89896114532	11382531.428210948
49853.73463873894	11319732.432363197
50781.5211232767	11265405.732795974
51726.57387216024	11213994.239829656
52689.21421350677	11161625.970231265
53669.76945540476	11108283.118224874
54668.57299720181	11053947.546666037
55685.96444286408	10998600.78087497
56722.28971644549	10942224.002354942
57777.90117970507	10884798.042393817
58853.1577519145	10826303.375546444
59948.42503189408	10766720.112995828
61064.07542232036	10706027.995790694
62200.48825634718	10644206.38795724
63358.04992658254	10584288.973085787
64537.15401646702	10533875.776533125
65738.20143409586	10482524.38181451
66961.60054853215	10430217.328902436
68207.76732865692	10376936.832835304
69477.1254846024	10322664.777670372
70770.10661181889	10267382.710324107
72087.15033782135	10211071.834297959
73428.70447166759	10153713.003287323
74795.22515621828	10095286.714671632
76187.17702322999	10035773.102883227
77605.0333513357	9975151.932652842
79049.2762269642	9913402.592129415
80520.39670825469	9860629.724496296
82018.8949920221	9810512.142874982
83545.28058382872	9759461.864531893
85100.07247122246	9707461.531822337
86683.79930019773	9654493.464072881
88296.99955494082	9600539.651569778
89940.22174092053	9545581.749435421
91614.0245713852	9489601.071390936
93318.9771573324	9432578.583402593
95055.65920101192	9374494.897210073
96824.66119303115	9315330.263734221
98626.5846131283	9255064.566362165
100462.04213468132	9197108.707777001
102331.65783302448	9148463.882074097
104236.06739764012	9098913.767887654
106175.9183482999	9048441.517644957
108151.87025522892	8997029.97023708
110164.59496336569	8944661.645183966
112214.77682079801	8891318.736690832
114303.11291144785	8836983.107594024
116430.31329208757	8781636.283194194
118597.10123376705	8725259.444974681
120804.21346773289	8667833.424203057
123052.40043592616	8609338.695413489
125342.42654613995	8549755.369767921
127675.07043192645	8499586.21382903
130051.12521734099	8451791.397384778
132471.39878661174	8403107.11127393
134936.71405883064	8353516.802314637
137447.90926775365	8303003.609267524
140005.8382468096	8251550.357102684
142611.37071941295	8199139.55115997
145265.39259467812	8145753.3712006565
147968.80626863963	8091373.665348324
150722.53093107554	8035981.94391705
153527.5028780421	7979559.373124702
156384.67583022476	7922086.768689269
159295.0212572123	7867307.422105058
162259.5287078087	7821520.760465168
165279.2061464897	7774882.001261283
168355.08029612005	7727375.28681276
171488.19698705408	7678984.464324785
174679.62151272455	7629693.080396332
177930.43899185772	7579484.37542574
181241.75473742394	7528341.277912334
184614.69463245454	7476246.39865191
188050.40551285836	7423182.024824181
191550.0555573528	7369130.113970305
195114.83468466165	7314072.287858182
198745.9549580986	7257989.826233688
202444.65099768018	7211580.948740421
206212.18039991445	7167227.120636765
210049.8241653915	7122047.860245036
213958.88713434213	7076027.806129897
217940.6984302958	7029151.310977083
221996.61191199525	6981402.436273168
226128.00663372793	6932764.94688625
230336.2873142131	6883222.305545883
234622.88481422624	6832757.667220197
238989.25662310526	6781353.873388404
243436.8873543108	6728993.446206751
247967.289250216	6675658.582565797
252582.00269627848	6625325.589935057
257282.59674479323	6583462.635015512
262070.66964838552	6540820.603381679
266947.8494034318	6497384.996283351
271915.7943036019	6453141.045146088
276976.1935036891	6408073.706549791
282130.76759394706	6362167.657113742
287381.2691851069	6315407.288286492
292729.4835042813	6267776.7010388225
298177.22900196735	6219259.700457834
303726.3579703311	6169839.790240578
309378.75717301364	6119500.1670850925
315136.34848664823	6068223.714977086
321001.08955431683	6026588.6925916895
326974.97445117676	5986646.620970983
333060.03436245886	5945961.220601035
339258.33827409917	5904518.658007341
345571.9936762143	5862304.842272071
352003.1472796675	5819305.420243045
358553.9857459817	5775505.771653443
365226.7364308175	5730891.004150817
372023.6681413066	5685445.948233503
378947.09190746717	5639155.152092812
385999.36176797637	5592002.876359298
393182.87557057705	5543973.088751131
400500.07578736113	5499126.447946396
407953.45034524484	5461991.2699447
415545.53347188793	5424164.999961616
423278.90655735444	5385634.77665779
431156.19903182285	5346387.499342123
439180.0892596086	5306409.8235174585
447353.3054498463	5265688.156343255
455678.6265841068	5224208.652013901
464158.8833612772	5181957.207051001
472796.9591600391	5138919.4555079965
481595.79101923504	5095080.76408565
490558.37063650455	5050426.227156519
499687.7453854889	5004940.661696896
508987.0193519675	4968716.5972881345
518459.3543892913	4933797.796826365
528107.971193433	4898229.151546364
537936.1503980698	4861998.567725484
547947.2336900292	4825093.726574843
558144.6249454955	4787502.080050817
568531.7913873753	4749210.846588527
579112.2647641759	4710207.006756027
589889.6425508494	4670477.298827507
600867.5891719692	4630008.214274188
612049.837247669	4588785.993171279
623440.1888627863	4546796.619519433
635042.5168595961	4508016.398846715
646860.7661546321	4475994.226492868
658898.9550799957	4443376.11606275
671161.1767496272	4410150.977047367
683651.6004510238	4376307.512541445
696374.4730628222	4341834.215402404
709334.1204987989	4306719.364337768
722534.9491787221	4270951.019919814
735981.4475265755	4234517.02052605
749678.1874966878	4197404.9782040985
763629.8261282243	4159602.274459704
777841.1071286482	4121096.055966271
792316.8624866261	4081873.2301946064
807062.0141149492	4051215.27566367
822081.575524054	4021482.2628619955
837380.6535266489	3991195.9136328343
852964.4499741016	3960345.9302911162
868838.2635251193	3928921.823510096
885007.4914473438	3896912.9087548843
901477.6314524917	3864308.302649571
918254.2835656281	3831096.919276769
935343.1520292377	3797267.4664082825
952750.0472427299	3762808.4416656275
970480.8877380306	3727708.1286091064
988541.7021919573	3691954.592754075
1006938.6314760271	3659289.48068023
1025677.9307444209	3632330.773690683
1044765.9715608053	3604870.360576872
1064209.2440647245	3576898.904502463
1084014.359178331	3548406.8948709997
1104188.0508541602	3519384.6440922073
1124737.1783647507	3489822.284288113
1145668.7286348727	3459709.7639378486
1166989.8186171474	3429036.8444600455
1188707.6977119034	3397793.096731578
1210829.7502320393	3365967.8975415747
1233363.4979137746	3333550.4259793973
1256316.6024741214	3300529.659755418
1279696.8682159416	3275161.4559249207
1303512.2446815087	3250378.77958203
1327770.829355429	3225134.8934154776
1352480.8704178738	3199421.214231966
1377650.769549055	3173228.9991035117
1403289.084785873	3146549.3423947566
1429404.533431761	3119373.1727349497
1456005.9950206485	3091691.249933586
1483102.514336103	3063494.161838644
1510703.3044866556	3034772.32113635
1538817.7500383465	3005515.9620913947
1567455.410205595	2975715.13722647
1596626.022101425	2948772.515091637
1626339.5040481905	2926495.1157517815
1656605.9589499151	2903803.130219576
1687435.6777273756	2880688.842975442
1718839.1428171454	2857144.3949126597
1750827.0317357269	2833161.780665199
1783410.220710006	2808732.845885813
1816599.7883753285	2783849.2844734476
1850407.019542302	2758502.635749114
1884843.4090337954	2732684.281579137
1919920.6655932867	2706385.4434449067
1955650.715865947	2679597.1794581
1992045.7084538713	2652310.381320309
2029118.0180466783	2631671.847416158
2066880.2496290822	2611341.7724123336
2105345.242766708	2590633.3512534015
2144526.0759716653	2569539.5428530453
2184436.0711494284	2548053.1750891153
2225088.7981283693	2526166.942365068
2266498.079273693	2503873.4031259515
2308677.994187172	2481164.9773282167
2351642.884494346	2458033.943862414
2395407.358720879	2434472.4379279255
2439986.29725955	2410472.4483588673
2485394.857429798	2386025.814900187
2531648.478631358	2364144.816361665
2578762.8875937983	2345981.150404008
2626754.1037238385	2327479.4555322183
2675638.4445520453	2308633.4409706923
2725432.531281028	2289436.6988714146
2776153.2944368036	2269882.702135228
2827817.979625338	2249964.802192555
2880444.1533962977	2229676.2267427947
2934049.709215787	2209010.0774516943
2988652.873550383	2187959.3276058175
3044272.2120643063	2166516.819723396
3100926.6359319235	2144675.263120716
3158635.408267819	2122427.231433185
3217418.1506763715	2105834.959364414
3277294.849923382	2089342.2984675437
3338285.8647317644	2072542.7063450557
3400411.9327037027	2055430.4709546217
3463694.1773717343	2037999.773951818
3528154.1153808828	2020244.6887118574
3593813.6638046256	2002159.178314447
3660695.147596906	1983737.0934911813
3728821.30718283	1964972.170534731
3798215.306190736	1945858.029169093
3868900.7393279755	1926388.1703802568
3940901.6404034477	1906555.9742064483
4014242.490499326	1888975.5274080308
4088948.226294856	1874300.8164364605
4165044.248545185	1859353.0065967154
4242556.430717777	1844127.0154723958
4321511.127789762	1828617.6660624596
4401935.1852088785	1812819.6850209937
4483855.948021181	1796727.7008642294
4567301.270168747	1780336.2421441565
4652299.523960189	1763639.7355881997
4738879.609717651	1746632.5042042274
4827070.965603188	1729308.7653503143
4916903.577628021	1711662.6287685963
5008407.989848212	1693688.0945824932
5101615.314749833	1680454.4192844266
5196557.243827657	1667174.0337770968
5293266.058360566	1653646.498035737
5391774.640387494	1639867.2125524427
5492116.483887789	1625831.492221673
5594325.706169377	1611534.5647472881
5698437.0594691355	1596971.5690198967
5804485.942768984	1582137.5534640364
5912508.413831869	1567027.4743545887
6022541.201461928	1551636.1941018393
6134621.717992506	1535958.4795046707
6248788.072006888	1519988.9999711923
6365079.081295578	1505964.2463482767
6483534.286054714	1494179.354216949
6604193.962330305	1482175.1432377852
6727099.135712336	1469947.5318497126
6852291.595284057	1457492.3625331065
6979813.907830667	1444805.4003961952
7109709.432312423	1431882.3317351567
7242022.334607315	1418718.7625673958
7376797.60252773	1405310.217137565
7514081.061116962	1391652.1363957403
7653919.388230155	1377739.8764473049
7796360.130405221	1363568.7069739772
7941451.71902934	1349133.80962544
8089243.486805938	1338633.261517123
8239785.684528512	1327990.9908757661
8393129.498166373	1317150.665766927
8549327.066268368	1306108.6003632685
8708431.497690724	1294861.0402435716
8870496.889654402	1283404.1611162096
9035578.34613892	1271734.0675188303
9203731.99661823	1259846.7914938666
9375015.01514529	1247738.2912393883
9549485.639791967	1235404.449734841
9727203.192450536	1222841.073341217
9908228.099003786	1210043.8903751743
10092621.909870483	1198907.2153580638
10280447.320933098	1189479.536429711
10471768.194855202	1179876.4067923254
10666649.582795387	1170094.5612783588
10865157.746525371	1160130.6739549371
11067360.180959744	1149981.3569930107
11273325.63710487	1139643.1595154577
11483124.14543511	1129112.5664237405
11696827.039703846	1118385.9972027433
11914506.981197748	1107459.8047033534
12136237.983442418	1096330.273902392
12362095.437367693	1084993.6206394695
12592156.13694151	1073488.291748034
12826498.3052806	1065141.6366962648
13065201.621247198	1056639.6489737493
13308347.24654076	1047979.4378130523
13556017.853293689	1039158.0586490693
13808297.652180923	1030172.5121178345
14065272.421052363	1021019.7430367087
14327029.534098294	1011696.6393655846
14593657.991557576	1002200.0311487583
14865248.449978571	992526.689437113
15141893.25304352	982673.3251902375
15423686.462966273	972636.5881581185
15710723.892474487	962413.0657420212
16003103.137387017	953595.8096604119
16300923.609797413	946072.3180019264
16604286.571875297	938408.8128835097
16913295.17029647	930602.688630848
17228054.471313924	922651.2910775853
17548671.49648152	914551.916662878
17875255.259042352	906301.8115121567
18207916.800994623	897898.1705007757
18546769.230846975	889338.1363002434
18891927.762076646	880618.7984066982
19243509.75230332	871737.1921513057
19601634.743191857	862690.2976922429
19966424.501097932	853576.5009236345
20338003.0584698	846921.4296393332
20716496.75602067	840142.5063460307
21102034.285685964	833237.426136765
21494746.734379806	826203.8412098648
