# Frequency (Hz)	Imaginary Part (Ohm)
1000.0	0.0017492788447
1018.6101701559753	0.001768278246374309
1037.566678745186	0.0017876312301466394
1056.875971184804	0.001807344376239998
1076.5446128423157	0.001827424387336464
1096.5792912678098	0.001847878090856169
1116.9868184678226	0.001868712441278695
1137.7741332214914	0.0018899345225076747
1158.9483034398106	0.0019115515502793887
1180.5165285688054	0.0019335708746162012
1202.4861420374123	0.0019559999823256413
1224.8646137509306	0.0019788464995460003
1247.6595526308697	0.0020021181943393022
1270.8787092020582	0.0020245923289536013
1294.529978227916	0.0020463032506744467
1318.6214013947485	0.00206841821634276
1343.1611700460153	0.002090944745285153
1368.1576279674719	0.0021138904967641886
1393.619274224142	0.0021372632725826053
1419.5547660501015	0.002161071019736021
1445.9729217920194	0.0021853218331149907
1472.882723907502	0.0022100239582573647
1500.2933220192183	0.002235185794151853
1528.2140360258693	0.0022608158960937736
1556.654359271062	0.002286922978593949
1585.6239617711371	0.0023134470350380603
1615.132693503091	0.002337753350317992
1645.1905877536624	0.002362512010261146
1675.807864530767	0.0023877314330786764
1706.9949340384078	0.002413420193646078
1738.7624002162504	0.002439587026418733
1771.1210643450886	0.002466240828401732
1804.0819287193826	0.0024933906621749367
1837.6562003881704	0.0025210457589743673
1871.8552949655793	0.0025492155218309162
1906.690840512252	0.0025779095287674783
1942.1746814890264	0.002607137536055588
1978.3188827841643	0.0026369094815326477
2015.1357338155585	0.0026655268311930953
2052.6377527092523	0.0026931928997816733
2090.8376905557498	0.0027213738386142306
2129.748535745521	0.0027500792295136207
2169.3835183851843	0.0027793188326220393
2209.756114795903	0.0028091025897196
2250.880052095462	0.0028394406276046292
2292.7693128656488	0.0028703432615368976
2335.438139906479	0.0029018209987449147
2378.9010410788933	0.0029338845419984967
2423.1727942376006	0.0029665447932478326
2468.2684522556924	0.002999812857330254
2514.2033481427966	0.0030335190229682073
2560.9931002584594	0.0030643811347450985
2608.6536176225477	0.003095817595673529
2657.2011053245064	0.0031278390944889404
2706.652070033241	0.0031604565188459543
2757.0233256095826	0.0031936809590203015
2808.3319988231724	0.0032275237116796336
2860.5955351757416	0.0032619962837244984
2913.831704832789	0.0032971103962008367
2968.0586086656026	0.003332877988285232
3023.2946844057765	0.0033693112213443884
3079.5587129142264	0.003406422483070109
3136.8698245668766	0.0034442243916912476
3195.2475057592133	0.003480397341118023
3254.711605531848	0.0035154125407972545
3315.282342319423	0.0035510793793005614
3376.9803108250912	0.003587409983737343
3439.8264890229243	0.0036244167069045606
3503.8422452906757	0.0036621121314868383
3569.0493456752292	0.0037005090743346897
3635.4699612933177	0.00373962059082241
3703.126675869927	0.003779459979287027
3772.0424934169973	0.0038200407855498793
3842.240846055061	0.0038613768075223516
3913.745601980384	0.003903482099897299
3986.581073580439	0.003946019279051628
4060.7720257003657	0.003984970218012658
4136.343684063274	0.004024646040575486
4213.321743847289	0.004065060236947289
4291.732378422157	0.004106226548390284
4371.602248248501	0.004148158971893929
4452.958509942655	0.004190871764934032
4535.828825510186	0.004234379450320445
4620.241371751313	0.004278696821134995
4706.224849841281	0.004323838945761265
4793.808495089106	0.004369821173008033
4883.02208687788	0.004416659137328017
4973.895958790063	0.004464368764133753
5066.461008921268	0.004509832019710193
5160.7487103859075	0.004553920329047876
5256.791122018419	0.00459882912932422
5354.620899273607	0.004644573690015214
5454.271305329836	0.004691169564764375
5555.7762223988775	0.0047386325966711825
5659.170163246242	0.004786978923677895
5764.488282925873	0.004836224984056618
5871.766390733255	0.004886387521998504
5981.040962380945	0.004937483593306943
6092.349152400711	0.004989530571196732
6205.7288067765	0.005042546152201155
6321.218475812449	0.0050959488001084035
6438.8574272404185	0.0051448991831036526
6558.685659571435	0.0051947605410556435
6680.743915695614	0.005245549827363325
6805.073696735206	0.005297284310931294
6931.717276155407	0.005349981582041398
7060.717714137772	0.005403659558333614
7192.118872221193	0.005458336490898259
7325.96542821523	0.005514030970481535
7462.302891391108	0.005570761933806605
7601.17761795533	0.00562854867001227
7742.636826811269	0.005687410827211478
7886.728615614156	0.005747368419171914
8033.501977124735	0.00580428758270159
8183.00681586739	0.005859613488304583
8335.293965098195	0.005915969018424887
8490.415204088747	0.005973373334549955
8648.423275731726	0.006031845954765801
8809.37190447399	0.006091406760393328
8973.31581458352	0.006152076002748211
9140.310748756232	0.006213874310026552
9310.413487069076	0.006276822694318694
9483.681866285926	0.006340942558753559
9660.174799522645	0.006406255704775931
9839.952296278227	0.0064727843395592025
10023.075482838643	0.006539603027340043
10209.606623060476	0.006600967290048756
10399.609139541202	0.006663473552127966
10593.1476351837	0.006727143066380283
10790.287915161836	0.006791997481126583
10991.097009294961	0.006858058847566679
11195.643194838794	0.006925349627276972
11403.99601970033	0.006993892699847591
11616.22632608502	0.007063711370661763
11832.40627458378	0.007134829378819851
12052.609368708414	0.007207270905210915
12276.910479883603	0.007281060580734483
12505.385872903913	0.007356223494675291
12738.113231864783	0.007427338719589463
12975.171686575868	0.007496651718859261
13216.641839466038	0.007567254644839489
13462.60579298911	0.0076391715032857275
13713.147177539455	0.007712426746704725
13968.351179887397	0.007787045282668568
14228.30457214352	0.007863052482283486
14493.09574126215	0.007940474188816318
14762.81471909391	0.008019336726481502
15037.553212997384	0.008099666909391557
15317.404637020798	0.008181492050674229
15602.46414366368	0.008264839971759209
15892.828656229764	0.008348310856158612
16188.596901781993	0.008425167232314505
16489.86944471065	0.008503453918708216
16796.74872092653	0.008583197533656666
17109.339072690134	0.008664425190848158
17427.746784089173	0.008747164508561354
17752.08011717636	0.008831443619055792
18082.44934877952	0.008917291178137115
18418.96680799711	0.009004736374900419
18761.746914391195	0.00909380894165481
19110.90621689136	0.00918453916403273
19466.56343342263	0.009276957891287399
19828.83949127071	0.009371096546781869
20197.857568198782	0.009459900324434911
20573.743134329114	0.009546713071667007
20956.623994804308	0.009635141418896803
21346.630333242454	0.009725215432715166
21743.8947560008	0.00981696573925731
22148.55233726359	0.009910423534616063
22560.74066496859	0.010005620595448846
22980.599887588487	0.010102589289782079
23408.272761782944	0.010201362588016667
23843.904700937208	0.010301974074138253
24287.643824604504	0.010404457957136211
24739.64100886812	0.010508849082635005
25200.049937640895	0.010613100524559417
25669.027154919517	0.010709383962763417
26146.732118010917	0.010807459252135587
26633.327251749808	0.010907359739331069
27128.978003724646	0.011009119391591923
27633.852900531667	0.011112772808296366
28148.123605075813	0.011218355232722934
28671.964974937695	0.011325902564033555
29205.55512182745	0.011435451369479684
29749.075472144435	0.011547038896835563
30302.71082866393	0.011660703087062794
30866.649433372742	0.011776482587210821
31441.08303147265	0.011894416763557167
32026.206936576502	0.012005364034141923
32622.220097116733	0.012114163927775057
33229.325163989684	0.012224988605941631
33847.72855945983	0.012337875750226388
34477.640547344636	0.012452863743474695
35119.275304507275	0.012569991682843252
35772.850993678774	0.012689299393093486
36438.58983763541	0.01281082744013237
37116.71819475767	0.012934617144805398
37807.466635993485	0.013060710596945933
38511.070023255685	0.013189150669686359
39227.76758927723	0.013319981034035347
39957.803018952654	0.013450276138384076
40701.42453219439	0.013571005772812294
41458.88496832911	0.013693982206280068
42230.441872066716	0.013819247252099856
43016.35758106799	0.013946843501736963
43816.89931514194	0.014076814339291066
44632.33926710397	0.014209203956247364
45462.95469532399	0.014344057366502105
46309.02801799736	0.014481420421667798
47170.84690917023	0.014621339826663289
48048.704396551344	0.014763863155593849
48942.89896114532	0.014909038867927002
49853.73463873894	0.015056916324969196
50781.5211232767	0.015195669544055377
51726.57387216024	0.015332168450141332
52689.21421350677	0.015471207624095642
53669.76945540476	0.015612834340735586
54668.57299720181	0.01575709675467083
55685.96444286408	0.015904043916676523
56722.28971644549	0.016053725790371093
57777.90117970507	0.016206193269204368
58853.1577519145	0.01636149819376198
59948.42503189408	0.016519693369391675
61064.07542232036	0.016680832584157694
62200.48825634718	0.016844970627129325
63358.04992658254	0.017007991033729318
64537.15401646702	0.01715954089627255
65738.20143409586	0.017313911127544827
66961.60054853215	0.017471154215088096
68207.76732865692	0.017631323623246417
69477.1254846024	0.017794473811344327
70770.10661181889	0.017960660252203716
72087.15033782135	0.018129939451005123
73428.70447166759	0.018302368964500083
74795.22515621828	0.018478007420581116
76187.17702322999	0.018656914538215733
77605.0333513357	0.018839151147751646
79049.2762269642	0.019024779211599667
80520.39670825469	0.019198500072655382
82018.8949920221	0.019369935552165644
83545.28058382872	0.01954456147512035
85100.07247122246	0.01972243721621488
86683.79930019773	0.0199036232551178
88296.99955494082	0.020088181197034597
89940.22174092053	0.020276173793654123
91614.0245713852	0.020467664964484773
93318.9771573324	0.020662719818587957
95055.65920101192	0.020861404676715743
96824.66119303115	0.021063787093860708
98626.5846131283	0.021269935882225335
100462.04213468132	0.021474122820711584
102331.65783302448	0.021664553531516414
104236.06739764012	0.02185852819025224
106175.9183482999	0.02205611275039309
108151.87025522892	0.022257374392818375
110164.59496336569	0.022462381548655045
112214.77682079801	0.022671203922545024
114303.11291144785	0.02288391251634548
116430.31329208757	0.02310057965327019
118597.10123376705	0.023321279002480304
120804.21346773289	0.02354608560413251
123052.40043592616	0.02377507589489365
125342.42654613995	0.024008327733929916
127675.07043192645	0.024226036673731133
130051.12521734099	0.0244415465986276
132471.39878661174	0.024661067199896677
134936.71405883064	0.0248846731169081
137447.90926775365	0.025112440378082995
140005.8382468096	0.025344446426744317
142611.37071941295	0.025580770147448466
145265.39259467812	0.025821491892806785
147968.80626863963	0.02606669351080647
150722.53093107554	0.026316458372639642
153527.5028780421	0.026570871401050522
156384.67583022476	0.026830019099210043
159295.0212572123	0.02708599731281766
162259.5287078087	0.027325473515834024
165279.2061464897	0.02756940641173685
168355.08029612005	0.027817878940339016
171488.19698705408	0.028070975584977616
174679.62151272455	0.02832878240123881
177930.43899185772	0.028591387046217998
181241.75473742394	0.02885887880832403
184614.69463245454	0.02913134863763811
188050.40551285836	0.02940888917683817
191550.0555573528	0.02969159479269788
195114.83468466165	0.0299795616081728
198745.9549580986	0.030272887535083004
202444.65099768018	0.030545917997138072
206212.18039991445	0.03081701572126049
210049.8241653915	0.03109315862015769
213958.88713434213	0.03137444058539073
217940.6984302958	0.03166095725585861
221996.61191199525	0.03195280605031635
226128.00663372793	0.03225008620049882
230336.2873142131	0.03255289878486016
234622.88481422624	0.03286134676294183
238989.25662310526	0.033175535010379904
243436.8873543108	0.033495570354563735
247967.289250216	0.03382156161095882
252582.00269627848	0.034142676987162945
257282.59674479323	0.034443998933168664
262070.66964838552	0.034750928531861326
266947.8494034318	0.03506357014261149
271915.7943036019	0.03538203006693561
276976.1935036891	0.03570641658463924
282130.76759394706	0.03603683999063364
287381.2691851069	0.03637341263243714
292729.4835042813	0.03671624894837437
298177.22900196735	0.03706546550648693
303726.3579703311	0.0374211810441672
309378.75717301364	0.03778351650853083
315136.34848664823	0.03815259509753986
321001.08955431683	0.03849517180702978
326974.97445117676	0.03883635178585577
333060.03436245886	0.039183881182141486
339258.33827409917	0.039537878159626276
345571.9936762143	0.03989846308109682
352003.1472796675	0.04026575854931152
358553.9857459817	0.04063988944868728
365226.7364308175	0.041020982987761
372023.6681413066	0.04140916874244222
378947.09190746717	0.04180457870007025
385999.36176797637	0.04220734730429099
393182.87557057705	0.04261761150076986
400500.07578736113	0.043020615282544555
407953.45034524484	0.043399895516948825
415545.53347188793	0.0437862342210522
423278.90655735444	0.04417976275417669
431156.19903182285	0.044580614920263946
439180.0892596086	0.044988927013369436
447353.3054498463	0.04540483786400436
455678.6265841068	0.045828488886339364
464158.8833612772	0.04626002412628668
472796.9591600391	0.046699590310477816
481595.79101923504	0.04714733689615151
490558.37063650455	0.047603416121971345
499687.7453854889	0.04806798305978834
508987.0193519675	0.048497955685743506
518459.3543892913	0.04892746269834393
528107.971193433	0.049364962909531976
537936.1503980698	0.04981060507409352
547947.2336900292	0.05026454071516627
558144.6249454955	0.05072692417575916
568531.7913873753	0.051197912671231076
579112.2647641759	0.051677666342745184
589889.6425508494	0.052166348311719124
600867.5891719692	0.052664124735287886
612049.837247669	0.05317116486279879
623440.1888627863	0.05368764109335867
635042.5168595961	0.054193556755465846
646860.7661546321	0.05467107764882376
658898.9550799957	0.055157485287260145
671161.1767496272	0.05565294505461288
683651.6004510238	0.056157625412541615
696374.4730628222	0.056671697957805724
709334.1204987989	0.057195337480609704
722534.9491787221	0.05772872202403351
735981.4475265755	0.0582720329445689
749678.1874966878	0.05882545497378317
763629.8261282243	0.059389176281129136
777841.1071286482	0.05996338853792533
792316.8624866261	0.06054828698252622
807062.0141149492	0.0610880562426097
822081.575524054	0.06162885827499565
837380.6535266489	0.06217972472522496
852964.4499741016	0.06274084289382625
868838.2635251193	0.06331240356702289
885007.4914473438	0.06389460108160211
901477.6314524917	0.06448763339099205
918254.2835656281	0.0650917021325677
935343.1520292377	0.06570701269621
952750.0472427299	0.06633377429414052
970480.8877380306	0.06697220003205567
988541.7021919573	0.0676225069815854
1006938.6314760271	0.06825772340611802
1025677.9307444209	0.06885901996550818
1044765.9715608053	0.06947150675618288
1064209.2440647245	0.07009539203025023
1084014.359178331	0.07073088791542578
1104188.0508541602	0.0713782104871579
1124737.1783647507	0.07203757984209573
1145668.7286348727	0.07270922017292467
1166989.8186171474	0.07339335984459387
1188707.6977119034	0.07409023147196334
1210829.7502320393	0.07480007199889493
1233363.4979137746	0.0755231227788164
1256316.6024741214	0.07625962965678368
1279696.8682159416	0.07693731229026556
1303512.2446815087	0.07761832762461543
1327770.829355429	0.07831201677021639
1352480.8704178738	0.07901861558885231
1377650.769549055	0.07973836433173517
1403289.084785873	0.0804715077211925
1429404.533431761	0.08121829503387638
1456005.9950206485	0.08197898018551966
1483102.514336103	0.08275382181727015
1510703.3044866556	0.08354308338363149
1538817.7500383465	0.08434703324204032
1567455.410205595	0.085165944744111
1596626.022101425	0.0859635907662846
1626339.5040481905	0.08672081545378653
1656605.9589499151	0.08749213222156926
1687435.6777273756	0.0882778033256445
1718839.1428171454	0.0890780959026532
1750827.0317357269	0.0898932820606947
1783410.220710006	0.09072363897184596
1816599.7883753285	0.09156944896640412
1850407.019542302	0.09243099962888056
1884843.4090337954	0.09330858389578367
1919920.6655932867	0.09420250015522015
1955650.715865947	0.09511305234834974
1992045.7084538713	0.09604055007272956
2029118.0180466783	0.09689144218949822
2066880.2496290822	0.0977490854097782
2105345.242766708	0.09862268951632079
2144526.0759716653	0.0995125515439349
2184436.0711494284	0.10041897405529848
2225088.7981283693	0.10134226524383161
2266498.079273693	0.10228273903848686
2308677.994187172	0.103240715210488
2351642.884494346	0.10421651948205524
2395407.358720879	0.10521048363715547
2439986.29725955	0.10622294563431098
2485394.857429798	0.10725424972150997
2531648.478631358	0.10825592073360651
2578762.8875937983	0.10920956257292853
2626754.1037238385	0.11018095184914846
2675638.4445520453	0.1111704188450864
2725432.531281028	0.11217829999018243
2776153.2944368036	0.11320493797488586
2827817.979625338	0.11425068186717294
2880444.1533962977	0.11531588723123531
2934049.709215787	0.11640091624837381
2988652.873550383	0.11750613784014544
3044272.2120643063	0.11863192779380013
3100926.6359319235	0.11977866889005194
3158635.408267819	0.1209467510332301
3217418.1506763715	0.1220151653499939
3277294.849923382	0.12309529443933444
3338285.8647317644	0.12419552491481818
3400411.9327037027	0.1253162308666612
3463694.1773717343	0.12645779334696308
3528154.1153808828	0.12762060049926696
3593813.6638046256	0.12880504769053375
3660695.147596906	0.13001153764557094
3728821.30718283	0.1312404805839626
3798215.306190736	0.13249229435954996
3868900.7393279755	0.13376740460250444
3940901.6404034477	0.13506624486404795
4014242.490499326	0.1363241707567078
4088948.226294856	0.13752522036324283
4165044.248545185	0.1387486217073215
4242556.430717777	0.1399947907585824
4321511.127789762	0.14126415122793032
4401935.1852088785	0.14255713471160228
4483855.948021181	0.14387418083791395
4567301.270168747	0.14521573741673982
4652299.523960189	0.14658226059177135
4738879.609717651	0.1479742149956123
4827070.965603188	0.14939207390775827
4916903.577628021	0.15083631941551615
5008407.989848212	0.1523074425779207
5101615.314749833	0.15364901479996518
5196557.243827657	0.15500938324445387
5293266.058360566	0.15639506837716946
5391774.640387494	0.15780654134598715
5492116.483887789	0.15924428206692545
5594325.706169377	0.16070877938732042
5698437.0594691355	0.16220053125204092
5804485.942768984	0.16372004487279454
5912508.413831869	0.1652678369005843
6022541.201461928	0.16684443360137768
6134621.717992506	0.16845037103504001
6248788.072006888	0.17008619523760266
6365079.081295578	0.17166596241603158
6483534.286054714	0.17317863851087878
6604193.962330305	0.1747194657652424
6727099.135712336	0.1762889680769904
6852291.595284057	0.17788767909382033
6979813.907830667	0.17951614239470381
7109709.432312423	0.1811749116747092
7242022.334607315	0.1828645509332653
7376797.60252773	0.1845856346659252
7514081.061116962	0.18633874805970255
7653919.388230155	0.18812448719204103
7796360.130405221	0.18994345923348613
7941451.71902934	0.19179628265413187
8089243.486805938	0.1934808669394851
8239785.684528512	0.19519421180710209
8393129.498166373	0.19693944231424143
8549327.066268368	0.19871715185807964
8708431.497690724	0.20052794487901696
8870496.889654402	0.202372437066191
9035578.34613892	0.20425125556681972
9203731.99661823	0.20616503919943752
9375015.01514529	0.2081144386710999
9549485.639791967	0.21010011679863186
9727203.192450536	0.21212274873399214
9908228.099003786	0.21418302219383242
10092621.909870483	0.21616699150561297
10280447.320933098	0.21807217476126783
10471768.194855202	0.22001281380148863
10666649.582795387	0.2219895684644593
10865157.746525371	0.22400311086806457
11067360.180959744	0.22605412563841734
11273325.63710487	0.22814331014263858
11483124.14543511	0.23027137472597062
11696827.039703846	0.23243904295330134
11914506.981197748	0.23464705185518442
12136237.983442418	0.23689615217843765
12362095.437367693	0.2391871086414043
12592156.13694151	0.2415174988126456
