# Frequency (Hz)	Imaginary Part (Ohm)
1000.0	0.0021856101550000004
1018.6101701559753	0.0022107062633230567
1037.566678745186	0.002236269414492259
1056.875971184804	0.0022623083002544417
1076.5446128423157	0.0022888317741113326
1096.5792912678098	0.002315848854329826
1116.9868184678226	0.002343368727008304
1137.7741332214914	0.0023714007492
1158.9483034398106	0.002399954452094498
1180.5165285688054	0.0024290395442584474
1202.4861420374123	0.002458665914936569
1224.8646137509306	0.002488843637414114
1247.6595526308697	0.0025195829724418872
1270.8787092020582	0.002549411519763635
1294.529978227916	0.0025783716001672647
1318.6214013947485	0.0026078706325949347
1343.1611700460153	0.00263791864703552
1368.1576279674719	0.0026685258601376965
1393.619274224142	0.0026997026786837026
1419.5547660501015	0.0027314597031277733
1445.9729217920194	0.0027638077312003933
1472.882723907502	0.0027967577615796565
1500.2933220192183	0.0028303209976309235
1528.2140360258693	0.0028645088512160876
1556.654359271062	0.0028993329465737414
1585.6239617711371	0.0029347213005248025
1615.132693503091	0.0029674687993663726
1645.1905877536624	0.003000825734733565
1675.807864530767	0.0030348034483438226
1706.9949340384078	0.003069413492985881
1738.7624002162504	0.0031046676364478313
1771.1210643450886	0.0031405778655183136
1804.0819287193826	0.0031771563900621362
1837.6562003881704	0.003214415647171773
1871.8552949655793	0.0032523683053961084
1906.690840512252	0.003291027269047868
1942.1746814890264	0.003330405682591242
1978.3188827841643	0.0033705169351111288
2015.1357338155585	0.003409273416303605
2052.6377527092523	0.0034469263675332533
2090.8376905557498	0.0034852800465921597
2129.748535745521	0.0035243474941444647
2169.3835183851843	0.003564141993543273
2209.756114795903	0.003604677075347168
2250.880052095462	0.0036459665219207176
2292.7693128656488	0.003688024372120647
2335.438139906479	0.0037308649260691935
2378.9010410788933	0.003774502750016297
2423.1727942376006	0.0038189526812922943
2468.2684522556924	0.0038642298333527577
2514.2033481427966	0.003910124468323928
2560.9931002584594	0.003952556019706071
2608.6536176225477	0.0039957772294794145
2657.2011053245064	0.004039802793320989
2706.652070033241	0.004084647680396866
2757.0233256095826	0.00413032713845185
2808.3319988231724	0.004176856698993874
2860.5955351757416	0.004224252182574864
2913.831704832789	0.0042725297041699235
2968.0586086656026	0.004321705678656574
3023.2946844057765	0.004371796826396006
3079.5587129142264	0.00442282017891818
3136.8698245668766	0.004474793084712718
3195.2475057592133	0.004524797327159907
3254.711605531848	0.0045734275428357726
3315.282342319423	0.00462296277510009
3376.9803108250912	0.004673419866465561
3439.8264890229243	0.004724815972886919
3503.8422452906757	0.004777168569594135
3569.0493456752292	0.004830495457034176
3635.4699612933177	0.004884814766923366
3703.126675869927	0.004940144968412351
3772.0424934169973	0.004996504874365808
3842.240846055061	0.005053913647759037
3913.745601980384	0.005112390808193557
3986.581073580439	0.005171507838578438
4060.7720257003657	0.0052261434863537185
4136.343684063274	0.005281795912830677
4213.321743847289	0.005338484040433965
4291.732378422157	0.0053962271437377725
4371.602248248501	0.005455044856019397
4452.958509942655	0.005514957175934773
4535.828825510186	0.00557598447431821
4620.241371751313	0.0056381475011087236
4706.224849841281	0.005701467392405217
4793.808495089106	0.005765965677652996
4883.02208687788	0.005831664286964008
4973.895958790063	0.005898585558573305
5066.461008921268	0.005962701519258304
5160.7487103859075	0.006025140225075406
5256.791122018419	0.006088740925832086
5354.620899273607	0.006153525246451889
5454.271305329836	0.006219515214301867
5555.7762223988775	0.006286733266682117
5659.170163246242	0.006355202258454715
5764.488282925873	0.00642494546981461
5871.766390733255	0.006495986614205141
5981.040962380945	0.006568349846380856
6092.349152400711	0.006642059770620392
6205.7288067765	0.00671714144909221
6321.218475812449	0.006792834376271569
6438.8574272404185	0.006862796053539348
6558.685659571435	0.006934059729525479
6680.743915695614	0.007006649634647651
6805.073696735206	0.00708059045025575
6931.717276155407	0.007155907317023792
7060.717714137772	0.007232625843497998
7192.118872221193	0.007310772114804009
7325.96542821523	0.007390372701516075
7462.302891391108	0.0074714546686913685
7601.17761795533	0.007554045585072382
7742.636826811269	0.007638173532460577
7886.728615614156	0.007723867115264545
8033.501977124735	0.007805627705423084
8183.00681586739	0.007885380336383831
8335.293965098195	0.00796661717737715
8490.415204088747	0.008049365849804284
8648.423275731726	0.00813365448910547
8809.37190447399	0.008219511754326263
8973.31581458352	0.008306966837861945
9140.310748756232	0.008396049475383232
9310.413487069076	0.00848678995594673
9483.681866285926	0.008579219132293555
9660.174799522645	0.008673368431339564
9839.952296278227	0.00876926986486089
10023.075482838643	0.008865675210036388
10209.606623060476	0.008954825723485112
10399.609139541202	0.009045635343158599
10593.1476351837	0.009138134945306008
10790.287915161836	0.009232355980788743
10991.097009294961	0.009328330485774083
11195.643194838794	0.009426091092627846
11403.99601970033	0.009525671041009697
11616.22632608502	0.00962710418917506
11832.40627458378	0.009730425025487233
12052.609368708414	0.009835668680143836
12276.910479883603	0.009942870937121446
12505.385872903913	0.010052068246342503
12738.113231864783	0.010155826236054055
12975.171686575868	0.010257227347321183
13216.641839466038	0.010360515550522996
13462.60579298911	0.010465725964761509
13713.147177539455	0.010572894362711171
13968.351179887397	0.01068205718278202
14228.30457214352	0.010793251541509096
14493.09574126215	0.010906515246172463
14762.81471909391	0.011021886807652127
15037.553212997384	0.011139405453522076
15317.404637020798	0.01125911114138816
15602.46414366368	0.011381044572474077
15892.828656229764	0.011503258381273397
16188.596901781993	0.011616372115914066
16489.86944471065	0.011731590916403361
16796.74872092653	0.01184895395837493
17109.339072690134	0.011968501146527612
17427.746784089173	0.012090273128193484
17752.08011717636	0.012214311307158403
18082.44934877952	0.012340657857739683
18418.96680799711	0.012469355739125897
18761.746914391195	0.012600448709983425
19110.90621689136	0.012733981343334862
19466.56343342263	0.012869999041714363
19828.83949127071	0.013008548052604915
20197.857568198782	0.013139662921807719
20573.743134329114	0.013268069904513265
20956.623994804308	0.013398866563016176
21346.630333242454	0.013532097369589676
21743.8947560008	0.013667807624143508
22148.55233726359	0.0138060434696265
22560.74066496859	0.013946851907715588
22980.599887588487	0.014090280814796907
23408.272761782944	0.014236378958244315
23843.904700937208	0.014385196013000734
24287.643824604504	0.014536782578468278
24739.64100886812	0.014691190195712536
25200.049937640895	0.014845489232707306
25669.027154919517	0.014988470836320784
26146.732118010917	0.015134113351906663
26633.327251749808	0.015282466299489542
27128.978003724646	0.015433580120670079
27633.852900531667	0.015587506195775702
28148.123605075813	0.015744296861330505
28671.964974937695	0.01590400542785013
29205.55512182745	0.016066686197968052
29749.075472144435	0.016232394484898993
30302.71082866393	0.016401186631245936
30866.649433372742	0.016573120028157428
31441.08303147265	0.016748253134840917
32026.206936576502	0.01691333500551554
32622.220097116733	0.017075382848027496
33229.325163989684	0.017240446428461963
33847.72855945983	0.017408581870214913
34477.640547344636	0.01757984634114811
35119.275304507275	0.01775429807302705
35772.850993678774	0.017931996381320287
36438.58983763541	0.01811300168536725
37116.71819475767	0.018297375528921696
37807.466635993485	0.01848518060107698
38511.070023255685	0.01867648075758123
39227.76758927723	0.018871341042548912
39957.803018952654	0.019065475830466614
40701.42453219439	0.01924565459158823
41458.88496832911	0.019429186510112793
42230.441872066716	0.019616133988870146
43016.35758106799	0.019806560592017432
43816.89931514194	0.02000053106665149
44632.33926710397	0.02019811136482372
45462.95469532399	0.02039936866596441
46309.02801799736	0.02060437139972445
47170.84690917023	0.02081318926924224
48048.704396551344	0.02102589327484334
48942.89896114532	0.021242555738181523
49853.73463873894	0.02146325032682885
50781.5211232767	0.021670493742429655
51726.57387216024	0.021874443469851002
52689.21421350677	0.022082188736402913
53669.76945540476	0.022293800177714443
54668.57299720181	0.022509349743955732
55685.96444286408	0.022728910724301818
56722.28971644549	0.022952557771851786
57777.90117970507	0.02318036692901152
58853.1577519145	0.023412415653349082
59948.42503189408	0.02364878284393104
61064.07542232036	0.023889548868149018
62200.48825634718	0.024134795589045497
63358.04992658254	0.02437839392267402
64537.15401646702	0.02460492879308629
65738.20143409586	0.024835679515983193
66961.60054853215	0.025070724549096816
68207.76732865692	0.02531014381027103
69477.1254846024	0.02555401870463429
70770.10661181889	0.02580243215227842
72087.15033782135	0.02605546861645224
73428.70447166759	0.026313214132279997
74795.22515621828	0.02657575633601428
76187.17702322999	0.02684318449483316
77605.0333513357	0.02711558953719215
79049.2762269642	0.027393064083740794
80520.39670825469	0.027652708202910915
82018.8949920221	0.027908924189305698
83545.28058382872	0.028169908398803945
85100.07247122246	0.028435749568848978
86683.79930019773	0.02870653808830301
88296.99955494082	0.02898236602818037
89940.22174092053	0.02926332717295265
91614.0245713852	0.02954951705243633
93318.9771573324	0.029841032974274116
95055.65920101192	0.03013797405702048
96824.66119303115	0.03044044126384305
98626.5846131283	0.030748537436851228
100462.04213468132	0.031053657572176912
102331.65783302448	0.0313380845643032
104236.06739764012	0.031627804791149905
106175.9183482999	0.03192291676071585
108151.87025522892	0.03222352081425052
110164.59496336569	0.03252971916037101
112214.77682079801	0.03284161590981428
114303.11291144785	0.03315931711083579
116430.31329208757	0.03348293078526707
118597.10123376705	0.03381256696524434
120804.21346773289	0.03414833773062054
123052.40043592616	0.03449035724707378
125342.42654613995	0.03483874180492487
127675.07043192645	0.035163684092682904
130051.12521734099	0.035485266211281244
132471.39878661174	0.035812833027825786
134936.71405883064	0.03614649591856367
137447.90926775365	0.03648636833247291
140005.8382468096	0.03683256582983635
142611.37071941295	0.03718520612153331
145265.39259467812	0.037544409109062565
147968.80626863963	0.0379102969253103
150722.53093107554	0.03828299397607638
153527.5028780421	0.038662626982373854
156384.67583022476	0.03904932502351539
159295.0212572123	0.03943118364382418
162259.5287078087	0.039788123520721363
165279.2061464897	0.04015170610946309
168355.08029612005	0.04052205503204697
171488.19698705408	0.04089929621109731
174679.62151272455	0.04128355791267957
177930.43899185772	0.0416749707899127
181241.75473742394	0.04207366792739242
184614.69463245454	0.04247978488644125
188050.40551285836	0.04289345975120131
191550.0555573528	0.04331483317558374
195114.83468466165	0.04374404843109314
198745.9549580986	0.044181251455541165
202444.65099768018	0.04458782381812206
206212.18039991445	0.04499140480534979
210049.8241653915	0.0454024965034215
213958.88713434213	0.04582123868794403
217940.6984302958	0.04624777373577205
221996.61191199525	0.04668224667341756
226128.00663372793	0.04712480522636091
230336.2873142131	0.047575599869278465
234622.88481422624	0.04803478387720612
238989.25662310526	0.04850251337765425
243436.8873543108	0.0489789474036926
247967.289250216	0.049464247948023725
252582.00269627848	0.049942128585583306
257282.59674479323	0.05039016022908972
262070.66964838552	0.050846529817717104
266947.8494034318	0.05131139252204275
271915.7943036019	0.05178490640039517
276976.1935036891	0.052267232452594875
282130.76759394706	0.052758534674696704
287381.2691851069	0.0532589801147499
292729.4835042813	0.05376873892959616
298177.22900196735	0.05428798444272532
303726.3579703311	0.05481689320320649
309378.75717301364	0.055355645045717196
315136.34848664823	0.05590442315168895
321001.08955431683	0.05641333039571309
326974.97445117676	0.05692004376268712
333060.03436245886	0.057436187151640804
339258.33827409917	0.05796193605688777
345571.9936762143	0.05849746923872076
352003.1472796675	0.05904296878419173
358553.9857459817	0.05959862016902403
365226.7364308175	0.060164612320675416
372023.6681413066	0.06074113768257598
378947.09190746717	0.061328392279560794
385999.36176797637	0.06192657578452025
393182.87557057705	0.06253589158629164
400500.07578736113	0.0631342354089495
407953.45034524484	0.06369694589979949
415545.53347188793	0.06427012852863281
423278.90655735444	0.06485397818371907
431156.19903182285	0.0654486933802321
439180.0892596086	0.06605447632774651
447353.3054498463	0.06667153299899176
455678.6265841068	0.06730007319988485
464158.8833612772	0.06794031064086627
472796.9591600391	0.06859246300956473
481595.79101923504	0.06925675204481221
490558.37063650455	0.06993340361203841
499687.7453854889	0.07062264778006706
508987.0193519675	0.07126008400467006
518459.3543892913	0.07189672588614028
528107.971193433	0.07254521578135302
537936.1503980698	0.07320577418386007
547947.2336900292	0.07387862569063583
558144.6249454955	0.07456399907844223
568531.7913873753	0.07526212738161625
579112.2647641759	0.07597324797130296
589889.6425508494	0.07669760263616515
600867.5891719692	0.07743543766459379
612049.837247669	0.07818700392844836
623440.1888627863	0.07895255696835693
635042.5168595961	0.07970226330940175
646860.7661546321	0.0804095155019658
658898.9550799957	0.08112992977817671
671161.1767496272	0.08186375108665052
683651.6004510238	0.0826112289345393
696374.4730628222	0.08337261747236502
709334.1204987989	0.08414817558043448
722534.9491787221	0.08493816695686106
735981.4475265755	0.08574286020722449
749678.1874966878	0.08656252893590076
763629.8261282243	0.08739745183908913
777841.1071286482	0.08824791279957293
792316.8624866261	0.08911420098324246
807062.0141149492	0.08991319852392163
822081.575524054	0.09071364488416338
837380.6535266489	0.09152898768736986
852964.4499741016	0.0923595041588795
868838.2635251193	0.09320547668324136
885007.4914473438	0.09406719290022879
901477.6314524917	0.0949449458026405
918254.2835656281	0.09583903383592099
935343.1520292377	0.09674976099963527
952750.0472427299	0.09767743695083202
970480.8877380306	0.09862237710933007
988541.7021919573	0.09958490276496497
1006938.6314760271	0.10052491247083545
1025677.9307444209	0.10141441038562048
1044765.9715608053	0.10232046200795314
1064209.2440647245	0.1032433754051474
1084014.359178331	0.1041834643777027
1104188.0508541602	0.10514104856599901
1124737.1783647507	0.10611645355897818
1145668.7286348727	0.1071100110048478
1166989.8186171474	0.10812205872384464
1188707.6977119034	0.10915294082309801
1210829.7502320393	0.11020300781362921
1233363.4979137746	0.1112726167295294
1256316.6024741214	0.11236213124935496
1279696.8682159416	0.113364235709113
1303512.2446815087	0.11437121288107838
1327770.829355429	0.11539693006955726
1352480.8704178738	0.1164417360294456
1377650.769549055	0.1175059860060276
1403289.084785873	0.11859004185576211
1429404.533431761	0.11969427216931881
1456005.9950206485	0.12081905239690215
1483102.514336103	0.12196476497590894
1510703.3044866556	0.12313179946096096
1538817.7500383465	0.1243205526563576
1567455.410205595	0.12553142875099402
1596626.022101425	0.1267107022136689
1626339.5040481905	0.12782996394529386
1656605.9589499151	0.12897005532819356
1687435.6777273756	0.13013136400572223
1718839.1428171454	0.13131428483534335
1750827.0317357269	0.13251922002288488
1783410.220710006	0.13374657925929317
1816599.7883753285	0.1349967798599339
1850407.019542302	0.13627024690648143
1884843.4090337954	0.13756741339145329
1919920.6655932867	0.1388887203654312
1955650.715865947	0.1402346170870229
1992045.7084538713	0.141605561175616
2029118.0180466783	0.14286294796881047
2066880.2496290822	0.14413027605179182
2105345.242766708	0.14542118932604106
2144526.0759716653	0.14673612671598035
2184436.0711494284	0.1480755353144912
2225088.7981283693	0.14943987053492852
2266498.079273693	0.15082959626596798
2308677.994187172	0.1522451850293324
2351642.884494346	0.15368711814045358
2395407.358720879	0.1551558858721266
2439986.29725955	0.15665198762120552
2485394.857429798	0.1581759320784054
2531648.478631358	0.1596559536047601
2578762.8875937983	0.16106481685961793
2626754.1037238385	0.16249989929937547
2675638.4445520453	0.16396168886752463
2725432.531281028	0.16545068258826923
2776153.2944368036	0.16696738673551828
2827817.979625338	0.16851231700502353
2880444.1533962977	0.17008599868972374
2934049.709215787	0.17168896685834745
2988652.873550383	0.1733217665373438
3044272.2120643063	0.1749849528961971
3100926.6359319235	0.17667909143618934
3158635.408267819	0.17840475818267904
3217418.1506763715	0.17998291614101392
3277294.849923382	0.1815783582079402
3338285.8647317644	0.18320349172320616
3400411.9327037027	0.184858869249717
3463694.1773717343	0.18654505363366902
3528154.1153808828	0.1882626181959205
3593813.6638046256	0.19001214692692933
3660695.147596906	0.19179423468531526
3728821.30718283	0.1936094874001172
3798215.306190736	0.1954585222768181
3868900.7393279755	0.19734196800719855
3940901.6404034477	0.1992604649831009
4014242.490499326	0.20111841622345394
4088948.226294856	0.20289221644734298
4165044.248545185	0.20469902739522164
4242556.430717777	0.2065394634022798
4321511.127789762	0.20841415023659046
4401935.1852088785	0.21032372531187712
4483855.948021181	0.21226883790424
4567301.270168747	0.2142501493729197
4652299.523960189	0.2162683333851633
4738879.609717651	0.21832407614528082
4827070.965603188	0.22041807662796126
4916903.577628021	0.22255104681593063
5008407.989848212	0.22472371194203622
5101615.314749833	0.2267048345039128
5196557.243827657	0.22871370445608896
5293266.058360566	0.23075995981989655
5391774.640387494	0.2328442963442068
5492116.483887789	0.23496742272589718
5594325.706169377	0.23713006085081328
5698437.0594691355	0.23933294603921976
5804485.942768984	0.24157682729581695
5912508.413831869	0.24386246756440863
6022541.201461928	0.24619064398731472
6134621.717992506	0.24856214816960387
6248788.072006888	0.25097778644825114
6365079.081295578	0.2533105529314831
6483534.286054714	0.25554414119762314
6604193.962330305	0.25781929692145505
6727099.135712336	0.2601367936804385
6852291.595284057	0.2624974194484426
6979813.907830667	0.2649019768636641
7109709.432312423	0.26735128350153214
7242022.334607315	0.26984617215269563
7376797.60252773	0.27238749110617716
7514081.061116962	0.2749761044378036
7653919.388230155	0.277612892304
7796360.130405221	0.28029875124105086
7941451.71902934	0.28303459446993584
8089243.486805938	0.28552185001002844
8239785.684528512	0.28805156756439726
8393129.498166373	0.29062836359289973
8549327.066268368	0.29325311423394934
8708431.497690724	0.2959267119310464
8870496.889654402	0.2986500657362148
9035578.34613892	0.30142410161909233
9203731.99661823	0.30424976278176924
9375015.01514529	0.3071280099794864
9549485.639791967	0.31005982184730413
9727203.192450536	0.31304619523284716
9908228.099003786	0.31608814553524445
10092621.909870483	0.31901735930829705
10280447.320933098	0.32183016997488006
10471768.194855202	0.32469532752658475
10666649.582795387	0.3276138061478503
10865157.746525371	0.3305865981528543
11067360.180959744	0.3336147143229099
11273325.63710487	0.33669918425014206
11483124.14543511	0.33984105668756104
11696827.039703846	0.34304139990564864
11914506.981197748	0.3463013020555825
12136237.983442418	0.3496218715392188
12362095.437367693	0.3530042373859599
12592156.13694151	0.35644482147397805
12826498.3052806	0.3595724480619857
13065201.621247198	0.3627582803129804
