# Frequency (Hz)	Imaginary Part (Ohm/m)
1000.0	63582184.583249025
1018.6101701559753	63301560.60868349
1037.566678745186	63015714.17420138
1056.875971184804	62724548.08893514
1076.5446128423157	62427963.3532784
1096.5792912678098	62125859.125225455
1116.9868184678226	61818132.686083615
1137.7741332214914	61504679.40554781
1158.9483034398106	61185392.70612533
1180.5165285688054	60860164.02689802
1202.4861420374123	60528882.786610685
1224.8646137509306	60191436.34607217
1247.6595526308697	59847709.96985666
1270.8787092020582	59535386.378908835
1294.529978227916	59253539.10645436
1318.6214013947485	58966446.60830154
1343.1611700460153	58674011.2699076
1368.1576279674719	58376133.66010649
1393.619274224142	58072712.497301355
1419.5547660501015	57763644.61502747
1445.9729217920194	57448824.92687476
1472.882723907502	57128146.39075704
1500.2933220192183	56801499.97251681
1528.2140360258693	56468774.608852275
1556.654359271062	56129857.16955474
1585.6239617711371	55786509.52479516
1615.132693503091	55510658.04374592
1645.1905877536624	55229672.91969661
1675.807864530767	54943458.61467748
1706.9949340384078	54651917.8127408
1738.7624002162504	54354951.3868727
1771.1210643450886	54052458.36528855
1804.0819287193826	53744335.897101775
1837.6562003881704	53430479.21735314
1871.8552949655793	53110781.61138978
1906.690840512252	52785134.37858102
1942.1746814890264	52453426.79535883
1978.3188827841643	52115546.07757087
2015.1357338155585	51812500.25501647
2052.6377527092523	51539527.21388111
2090.8376905557498	51261474.09800223
2129.748535745521	50978246.36632441
2169.3835183851843	50689747.71836722
2209.756114795903	50395880.06148174
2250.880052095462	50096543.477498315
2292.7693128656488	49791636.18875303
2335.438139906479	49481054.5234824
2378.9010410788933	49164692.88057376
2423.1727942376006	48842443.69365975
2468.2684522556924	48514197.39454467
2514.2033481427966	48183672.68839372
2560.9931002584594	47920447.74836952
2608.6536176225477	47652324.147422165
2657.2011053245064	47379210.720638335
2706.652070033241	47101014.6065102
2757.0233256095826	46817641.2153614
2808.3319988231724	46528994.19718565
2860.5955351757416	46234975.408886656
2913.831704832789	45935484.880908325
2968.0586086656026	45630420.78324422
3023.2946844057765	45319679.39081413
3079.5587129142264	45003155.0481964
3136.8698245668766	44680740.133704044
3195.2475057592133	44395510.512219965
3254.711605531848	44138872.47760133
3315.282342319423	43877458.36548993
3376.9803108250912	43611179.29227094
3439.8264890229243	43339944.7201904
3503.8422452906757	43063662.42657123
3569.0493456752292	42782238.472456746
3635.4699612933177	42495577.17067021
3703.126675869927	42203581.05328029
3772.0424934169973	41906150.83846088
3842.240846055061	41603185.39673413
3913.745601980384	41294581.71658547
3986.581073580439	40985904.64789956
4060.7720257003657	40742058.90556121
4136.343684063274	40493675.15246616
4213.321743847289	40240668.93546198
4291.732378422157	39982954.22970888
4371.602248248501	39720443.40943002
4452.958509942655	39453047.21811797
4535.828825510186	39180674.73818654
4620.241371751313	38903233.36005777
4706.224849841281	38620628.750673726
4793.808495089106	38332764.8214222
4883.02208687788	38039543.695465505
4973.895958790063	37740865.67446148
5066.461008921268	37480393.885785945
5160.7487103859075	37246087.60645087
5256.791122018419	37007420.84738875
5354.620899273607	36764312.45932988
5454.271305329836	36516679.78280292
5555.7762223988775	36264438.62002961
5659.170163246242	36007503.206296735
5764.488282925873	35745786.180795215
5871.766390733255	35479198.55691636
5981.040962380945	35207649.69199564
6092.349152400711	34931047.25649314
6205.7288067765	34649297.202600345
6321.218475812449	34369515.1525163
6438.8574272404185	34150030.947459325
6558.685659571435	33926462.10399967
6680.743915695614	33698732.60632167
6805.073696735206	33466765.023942355
6931.717276155407	33230480.485384274
7060.717714137772	32989798.651358422
7192.118872221193	32744637.68744788
7325.96542821523	32494914.236283377
7462.302891391108	32240543.38920075
7601.17761795533	31981438.657371186
7742.636826811269	31717511.942394074
7886.728615614156	31448673.50634251
8033.501977124735	31217624.51903339
8183.00681586739	31009599.19511719
8335.293965098195	30797702.484526128
8490.415204088747	30581862.340095494
8648.423275731726	30362005.3738505
8809.37190447399	30138056.832053725
8973.31581458352	29909940.56978793
9140.310748756232	29677579.02506601
9310.413487069076	29440893.192459125
9483.681866285926	29199802.596233904
9660.174799522645	28954225.26298993
9839.952296278227	28704077.69378785
10023.075482838643	28457588.79791552
10209.606623060476	28265250.09946617
10399.609139541202	28069331.945111126
10593.1476351837	27869767.720566895
10790.287915161836	27666489.571846846
10991.097009294961	27459428.382190116
11195.643194838794	27248513.748561163
11403.99601970033	27033673.957712002
11616.22632608502	26814835.96179887
11832.40627458378	26591925.353545222
12052.609368708414	26364866.340942368
12276.910479883603	26133581.72147952
12505.385872903913	25897992.855894033
12738.113231864783	25698435.232639346
12975.171686575868	25518357.982800264
13216.641839466038	25334929.464700434
13462.60579298911	25148087.310667302
13713.147177539455	24957767.992355336
13968.351179887397	24763906.799145583
14228.30457214352	24566437.816143602
14493.09574126215	24365293.901767388
14762.81471909391	24160406.66491878
15037.553212997384	23951706.441729657
15317.404637020798	23739122.271875404
15602.46414366368	23522581.87444769
15892.828656229764	23310924.569883324
16188.596901781993	23146303.258231644
16489.86944471065	22978618.31595883
16796.74872092653	22807812.728377756
17109.339072690134	22633828.419748183
17427.746784089173	22456606.233530544
17752.08011717636	22276085.912271973
18082.44934877952	22092206.077118173
18418.96680799711	21904904.20694392
18761.746914391195	21714116.617095187
19110.90621689136	21519778.437735725
19466.56343342263	21321823.591790557
19828.83949127071	21120184.772479165
20197.857568198782	20951767.73716194
20573.743134329114	20799226.768201146
20956.623994804308	20643846.985852245
21346.630333242454	20485575.559315003
21743.8947560008	20324358.6745991
22148.55233726359	20160141.516226612
22560.74066496859	19992868.2485943
22980.599887588487	19822481.996988796
23408.272761782944	19648924.828248646
23843.904700937208	19472137.731066473
24287.643824604504	19292060.59592437
24739.64100886812	19108632.194656067
25200.049937640895	18930820.187803194
25669.027154919517	18792663.880703926
26146.732118010917	18651936.461221445
26633.327251749808	18508590.080516778
27128.978003724646	18362575.999275956
27633.852900531667	18213844.57113807
28148.123605075813	18062345.22581498
28671.964974937695	17908026.451896925
29205.55512182745	17750835.779338
29749.075472144435	17590719.761615794
30302.71082866393	17427623.957559127
30866.649433372742	17261492.912837196
31441.08303147265	17092270.141104817
32026.206936576502	16952805.886318225
32622.220097116733	16825842.724742703
33229.325163989684	16696516.757126737
33847.72855945983	16564784.011247825
34477.640547344636	16430599.696553009
35119.275304507275	16293918.18892946
35772.850993678774	16154693.015191842
36438.58983763541	16012876.837281015
37116.71819475767	15868421.436168358
37807.466635993485	15721277.695461059
38511.070023255685	15571395.584701812
39227.76758927723	15418724.142357983
39957.803018952654	15271963.815185374
40701.42453219439	15157806.257884253
41458.88496832911	15041524.209017182
42230.441872066716	14923078.13143461
43016.35758106799	14802427.752193904
43816.89931514194	14679532.048866156
44632.33926710397	14554349.23558805
45462.95469532399	14426836.748854226
46309.02801799736	14296951.233045273
47170.84690917023	14164648.525686314
48048.704396551344	14029883.642431315
48942.89896114532	13892610.761767894
49853.73463873894	13752783.209437529
50781.5211232767	13638990.904451514
51726.57387216024	13534743.333405357
52689.21421350677	13428555.697323712
53669.76945540476	13320391.891266117
54668.57299720181	13210215.138373079
55685.96444286408	13097987.977361463
56722.28971644549	12983672.249787292
57777.90117970507	12867229.087071469
58853.1577519145	12748618.897284007
59948.42503189408	12627801.351682363
61064.07542232036	12504735.370999245
62200.48825634718	12379379.111475196
63358.04992658254	12259886.136003273
64537.15401646702	12166662.380099086
65738.20143409586	12071703.714234939
66961.60054853215	11974977.851441287
68207.76732865692	11876451.903882537
69477.1254846024	11776092.37167496
70770.10661181889	11673865.131496223
72087.15033782135	11569735.424983185
73428.70447166759	11463667.84691365
74795.22515621828	11355626.333168201
76187.17702322999	11245574.148468047
77605.0333513357	11133473.87388458
79049.2762269642	11019287.394116586
80520.39670825469	10927464.030814288
82018.8949920221	10842728.610987183
83545.28058382872	10756416.250578867
85100.07247122246	10668497.60245678
86683.79930019773	10578942.77333327
88296.99955494082	10487721.31360147
89940.22174092053	10394802.206982186
91614.0245713852	10300153.859977972
93318.9771573324	10203744.091131033
95055.65920101192	10105540.120081162
96824.66119303115	10005508.556420058
98626.5846131283	9903615.388338238
100462.04213468132	9807300.477335276
102331.65783302448	9731824.499492923
104236.06739764012	9654943.900860235
106175.9183482999	9576632.541205304
108151.87025522892	9496863.793822037
110164.59496336569	9415610.53647684
112214.77682079801	9332845.142186733
114303.11291144785	9248539.46982585
116430.31329208757	9162664.854557225
118597.10123376705	9075192.098086359
120804.21346773289	8986091.45873357
123052.40043592616	8895332.641321417
125342.42654613995	8802884.786874067
127675.07043192645	8729381.20904877
130051.12521734099	8661005.8432154
132471.39878661174	8591358.000189407
134936.71405883064	8520413.9989537
137447.90926775365	8448149.717783451
140005.8382468096	8374540.586044426
142611.37071941295	8299561.575838694
145265.39259467812	8223187.193494913
147968.80626863963	8145391.470900159
150722.53093107554	8066147.956670507
153527.5028780421	7985429.707157292
156384.67583022476	7903209.277285928
159295.0212572123	7826137.861265144
162259.5287078087	7765404.002004801
165279.2061464897	7703539.875289384
168355.08029612005	7640524.446649259
171488.19698705408	7576336.290159673
174679.62151272455	7510953.581155827
177930.43899185772	7444354.088812158
181241.75473742394	7376515.168583664
184614.69463245454	7307413.754506543
188050.40551285836	7237026.351355402
191550.0555573528	7165329.026654799
195114.83468466165	7092297.402541777
198745.9549580986	7017906.647477247
202444.65099768018	6959400.137116779
206212.18039991445	6904507.728148731
210049.8241653915	6848593.762109526
213958.88713434213	6791639.227648237
217940.6984302958	6733624.75960946
221996.61191199525	6674530.632448984
226128.00663372793	6614336.753526826
230336.2873142131	6553022.656275582
234622.88481422624	6490567.493241529
238989.25662310526	6426950.028996288
243436.8873543108	6362148.632916564
247967.289250216	6296141.271829442
252582.00269627848	6234781.475304807
257282.59674479323	6186117.432179226
262070.66964838552	6136547.742930596
266947.8494034318	6086055.553330482
271915.7943036019	6034623.69549035
276976.1935036891	5982234.682024381
282130.76759394706	5928870.700103506
287381.2691851069	5874513.605398879
292729.4835042813	5819144.915912625
298177.22900196735	5762745.805693708
303726.3579703311	5705297.09843698
309378.75717301364	5646779.260962959
315136.34848664823	5587172.3965763785
321001.08955431683	5540784.60134178
326974.97445117676	5496870.662904965
333060.03436245886	5452139.478601633
339258.33827409917	5406575.839347133
345571.9936762143	5360164.253013175
352003.1472796675	5312888.939160347
358553.9857459817	5264733.823672531
365226.7364308175	5215682.533291609
372023.6681413066	5165718.390050326
378947.09190746717	5114824.405601621
385999.36176797637	5062983.275442423
393182.87557057705	5010177.373029873
400500.07578736113	4961496.252240363
407953.45034524484	4922615.378148742
415545.53347188793	4883010.924374456
423278.90655735444	4842669.424976505
431156.19903182285	4801577.163410405
439180.0892596086	4759720.167864469
447353.3054498463	4717084.2065092055
455678.6265841068	4673654.782658354
464158.8833612772	4629417.129839868
472796.9591600391	4584356.20677512
481595.79101923504	4538456.69226476
490558.37063650455	4491702.979979283
499687.7453854889	4444079.173152744
508987.0193519675	4407396.898026145
518459.3543892913	4372348.144245831
528107.971193433	4336647.127193915
537936.1503980698	4300281.7081399225
547947.2336900292	4263239.522449536
558144.6249454955	4225507.975380512
568531.7913873753	4187074.2378002754
579112.2647641759	4147925.241823945
589889.6425508494	4108047.676371059
600867.5891719692	4067427.982639685
612049.837247669	4026052.349496296
623440.1888627863	3983906.708779787
635042.5168595961	3945374.8718005135
646860.7661546321	3914369.6143455794
658898.9550799957	3882787.343773679
671161.1767496272	3850617.3217725283
683651.6004510238	3817848.610188008
696374.4730628222	3784470.067305112
709334.1204987989	3750470.3440596047
722534.9491787221	3715837.8801792413
735981.4475265755	3680560.90025315
749678.1874966878	3644627.409728038
763629.8261282243	3608025.1908299583
777841.1071286482	3570741.7984101004
792316.8624866261	3532764.55571331
807062.0141149492	3503808.202303927
822081.575524054	3475878.0992108253
837380.6535266489	3447428.2121466896
852964.4499741016	3418448.8678433723
868838.2635251193	3388930.2130115577
885007.4914473438	3358862.2109905514
901477.6314524917	3328234.6383356834
918254.2835656281	3297037.081342245
935343.1520292377	3265258.932504708
952750.0472427299	3232889.386910058
970480.8877380306	3199917.4385640235
988541.7021919573	3166331.8766488945
1006938.6314760271	3135880.683400561
1025677.9307444209	3111186.513969719
1044765.9715608053	3086032.781843905
1064209.2440647245	3060410.9344831747
1084014.359178331	3034312.26018335
1104188.0508541602	3007727.885113962
1124737.1783647507	2980648.7703010393
1145668.7286348727	2953065.7085537734
1166989.8186171474	2924969.3213339727
1188707.6977119034	2896350.055567242
1210829.7502320393	2867198.180394855
1233363.4979137746	2837503.7838651417
1256316.6024741214	2807256.769563329
1279696.8682159416	2784425.821586484
1303512.2446815087	2762190.7602676097
1327770.829355429	2739541.9006741606
1352480.8704178738	2716471.5419498393
1377650.769549055	2692971.839924096
1403289.084785873	2669034.8044450404
1429404.533431761	2644652.296662692
1456005.9950206485	2619816.026261684
1483102.514336103	2594517.5486424733
1510703.3044866556	2568748.2620500796
1538817.7500383465	2542499.4046494067
1567455.410205595	2515762.051546105
1596626.022101425	2491721.512285596
1626339.5040481905	2472069.5680259457
1656605.9589499151	2452051.897739725
1687435.6777273756	2431661.695203354
1718839.1428171454	2410892.0275282655
1750827.0317357269	2389735.832803658
1783410.220710006	2368185.917695378
1816599.7883753285	2346234.955000083
1850407.019542302	2323875.481153941
1884843.4090337954	2301099.8936949265
1919920.6655932867	2277900.448677892
1955650.715865947	2254269.258041572
1992045.7084538713	2230198.2869265177
2029118.0180466783	2212211.002451681
2066880.2496290822	2194521.0869632666
2105345.242766708	2176501.9591375645
2144526.0759716653	2158147.4922769694
2184436.0711494284	2139451.4456649716
2225088.7981283693	2120407.462444282
2266498.079273693	2101009.067455408
2308677.994187172	2081249.6650350369
2351642.884494346	2061122.5367734462
2395407.358720879	2040620.8392301516
2439986.29725955	2019737.6016070922
2485394.857429798	1998465.7233784597
2531648.478631358	1979499.1012793323
2578762.8875937983	1963867.832045186
2626754.1037238385	1947945.6622308362
2675638.4445520453	1931727.1781269894
2725432.531281028	1915206.8652742978
2776153.2944368036	1898379.1065883858
2827817.979625338	1881238.1804499896
2880444.1533962977	1863778.258759523
2934049.709215787	1845993.4049554889
2988652.873550383	1827877.5719959622
3044272.2120643063	1809424.600302539
3100926.6359319235	1790628.2156660224
3158635.408267819	1771482.0271130996
3217418.1506763715	1757318.2923028513
3277294.849923382	1743250.1779242554
3338285.8647317644	1728920.2535432985
3400411.9327037027	1714323.6468312931
3463694.1773717343	1699455.3947846736
3528154.1153808828	1684310.4420375465
3593813.6638046256	1668883.6391427917
3660695.147596906	1653169.740821201
3728821.30718283	1637163.404178035
3798215.306190736	1620859.1868863623
3868900.7393279755	1604251.545336633
3940901.6404034477	1587334.8327517747
4014242.490499326	1572378.0322832582
4088948.226294856	1559948.870600913
4165044.248545185	1547288.40010476
4242556.430717777	1534392.3160984209
4321511.127789762	1521256.2337743784
4401935.1852088785	1507875.6867231007
4483855.948021181	1494246.1254144218
4567301.270168747	1480362.9156506334
4652299.523960189	1466221.336990832
4738879.609717651	1451816.5811458966
4827070.965603188	1437143.7503436308
4916903.577628021	1422197.8556634686
5008407.989848212	1406973.8153401713
5101615.314749833	1395824.9702402481
5196557.243827657	1384640.0263747375
5293266.058360566	1373246.9288007028
5391774.640387494	1361641.803742215
5492116.483887789	1349820.7053317048
5594325.706169377	1337779.6142683453
5698437.0594691355	1325514.436451434
5804485.942768984	1313021.0015883544
5912508.413831869	1300295.0617766434
6022541.201461928	1287332.2900596387
6134621.717992506	1274128.2789552894
6248788.072006888	1260678.538957546
6365079.081295578	1248887.4953090297
6483534.286054714	1239006.5076944476
6604193.962330305	1228941.6332190463
6727099.135712336	1218689.4497170602
6852291.595284057	1208246.4713356318
6979813.907830667	1197609.1473495893
7109709.432312423	1186773.860954164
7242022.334607315	1175736.9280352292
7376797.60252773	1164494.5959166742
7514081.061116962	1153043.042084443
7653919.388230155	1141378.3728868417
7796360.130405221	1129496.6222106628
7941451.71902934	1117393.7501326469
8089243.486805938	1108620.3941266716
8239785.684528512	1099729.1775522674
8393129.498166373	1090672.4939245195
8549327.066268368	1081447.2638734123
8708431.497690724	1072050.3507213236
8870496.889654402	1062478.559416535
9035578.34613892	1052728.6354468667
9203731.99661823	1042797.2637331138
9375015.01514529	1032681.0675018873
9549485.639791967	1022376.6071374654
9727203.192450536	1011880.3790122974
9908228.099003786	1001188.8142957233
10092621.909870483	991895.5128017345
10280447.320933098	984041.290343017
10471768.194855202	976040.8994679
10666649.582795387	967891.6199572828
10865157.746525371	959590.6809683244
11067360.180959744	951135.260092326
11273325.63710487	942522.4823950855
11483124.14543511	933749.4194393847
11696827.039703846	924813.0882892887
11914506.981197748	915710.4504959193
12136237.983442418	906438.4110643455
12362095.437367693	896993.817401259
12592156.13694151	887408.8925816757
12826498.3052806	880470.8525348225
13065201.621247198	873403.6943821491
13308347.24654076	866205.0152137342
13556017.853293689	858872.3674010974
13808297.652180923	851403.257764974
14065272.421052363	843795.1467276086
14327029.534098294	836045.4474492721
14593657.991557576	828151.5249487077
14865248.449978571	820110.6952072099
15141893.25304352	811920.2242560281
15423686.462966273	803577.3272467871
15710723.892474487	795079.1675046106
16003103.137387017	787755.6959223209
16300923.609797413	781513.0045019091
16604286.571875297	775154.1355319319
16913295.17029647	768676.9269284235
17228054.471313924	762079.1763706682
17548671.49648152	755358.6405523862
17875255.259042352	748513.0344189872
18207916.800994623	741540.0303906245
18546769.230846975	734437.2575707958
18891927.762076646	727202.3009402113
19243509.75230332	719832.7005356589
19601634.743191857	712325.9506135978
19966424.501097932	704763.9762786177
20338003.0584698	699249.6309291165
20716496.75602067	693632.662674361
21102034.285685964	687911.1616846239
21494746.734379806	682083.1825879208
21894767.628566206	676146.7438085624
