# Frequency (Hz)	Real Part (Ohm/m)
1000.0	6805259.393194778
1018.6101701559753	6801360.055348772
1037.566678745186	6797388.150161951
1056.875971184804	6793342.327143761
1076.5446128423157	6789221.210670786
1096.5792912678098	6785023.399519013
1116.9868184678226	6780747.466387421
1137.7741332214914	6776391.957412677
1158.9483034398106	6771955.391674797
1180.5165285688054	6767436.2606936265
1202.4861420374123	6762833.02791594
1224.8646137509306	6758144.128192996
1247.6595526308697	6753367.967248356
1270.8787092020582	6747881.106805177
1294.529978227916	6741695.175008772
1318.6214013947485	6735394.121969067
1343.1611700460153	6728975.805260126
1368.1576279674719	6722438.0425851215
1393.619274224142	6715778.611034291
1419.5547660501015	6708995.2463291595
1445.9729217920194	6702085.642052637
1472.882723907502	6695047.448864819
1500.2933220192183	6687878.273704181
1528.2140360258693	6680575.678973928
1556.654359271062	6673137.181713164
1585.6239617711371	6665546.993580134
1615.132693503091	6657293.6482542185
1645.1905877536624	6648886.7067674305
1675.807864530767	6640323.310669085
1706.9949340384078	6631600.548312234
1738.7624002162504	6622715.453863692
1771.1210643450886	6613665.006295608
1804.0819287193826	6604446.128358299
1837.6562003881704	6595055.685533923
1871.8552949655793	6585490.48497075
1906.690840512252	6575747.274397519
1942.1746814890264	6565822.7410176555
1978.3188827841643	6555713.510382877
2015.1357338155585	6545489.881090464
2052.6377527092523	6535140.022995971
2090.8376905557498	6524597.55228125
2129.748535745521	6513858.884392662
2169.3835183851843	6502920.36806742
2209.756114795903	6491778.28409211
2250.880052095462	6480428.844038132
2292.7693128656488	6468868.188973569
2335.438139906479	6457092.388151141
2378.9010410788933	6445097.437671686
2423.1727942376006	6432879.259122796
2468.2684522556924	6420433.698192113
2514.2033481427966	6407795.891889919
2560.9931002584594	6395677.83519277
2608.6536176225477	6383334.259398528
2657.2011053245064	6370760.96755842
2706.652070033241	6357953.68461775
2757.0233256095826	6344908.055962315
2808.3319988231724	6331619.64593781
2860.5955351757416	6318083.936341652
2913.831704832789	6304296.324886722
2968.0586086656026	6290252.123636572
3023.2946844057765	6275946.5574114565
3079.5587129142264	6261374.762164709
3136.8698245668766	6246531.783328945
3195.2475057592133	6232213.915644185
3254.711605531848	6218258.62731049
3315.282342319423	6204043.6286863275
3376.9803108250912	6189564.086519005
3439.8264890229243	6174815.077608166
3503.8422452906757	6159791.587131866
3569.0493456752292	6144488.506941468
3635.4699612933177	6128900.633824811
3703.126675869927	6113022.667737084
3772.0424934169973	6096849.209998735
3842.240846055061	6080374.761459863
3913.745601980384	6063593.720630462
3986.581073580439	6046652.285408735
4060.7720257003657	6031286.422273123
4136.343684063274	6015634.597809966
4213.321743847289	5999691.490230294
4291.732378422157	5983451.678705752
4371.602248248501	5966909.641525438
4452.958509942655	5950059.754218468
4535.828825510186	5932896.287641609
4620.241371751313	5915413.40603129
4706.224849841281	5897605.165019385
4793.808495089106	5879465.509612067
4883.02208687788	5860988.272131049
4973.895958790063	5842167.1701165
5066.461008921268	5824533.91322902
5160.7487103859075	5807662.447501727
5256.791122018419	5790477.000926469
5354.620899273607	5772971.730266241
5454.271305329836	5755140.683540396
5555.7762223988775	5736977.798000927
5659.170163246242	5718476.898071043
5764.488282925873	5699631.693245427
5871.766390733255	5680435.775951375
5981.040962380945	5660882.6193701895
6092.349152400711	5640965.57521794
6205.7288067765	5620677.871485012
6321.218475812449	5600328.153152161
6438.8574272404185	5582465.945012696
6558.685659571435	5564271.318140391
6680.743915695614	5545738.086166073
6805.073696735206	5526859.947591168
6931.717276155407	5507630.483645159
7060.717714137772	5488043.156103104
7192.118872221193	5468091.305062592
7325.96542821523	5447768.146679291
7462.302891391108	5427066.770860368
7601.17761795533	5405980.13891499
7742.636826811269	5384501.081161097
7886.728615614156	5362622.294487611
8033.501977124735	5342593.092080337
8183.00681586739	5323632.103534463
8335.293965098195	5304318.247765419
8490.415204088747	5284644.957854149
8648.423275731726	5264605.544670101
8809.37190447399	5244193.194596875
8973.31581458352	5223400.967215498
9140.310748756232	5202221.792944636
9310.413487069076	5180648.470636827
9483.681866285926	5158673.665130042
9660.174799522645	5136289.904753629
9839.952296278227	5113489.578787884
10023.075482838643	5090781.7570972135
10209.606623060476	5071302.641665111
10399.609139541202	5051461.016580331
10593.1476351837	5031250.13547655
10790.287915161836	5010663.126436429
10991.097009294961	4989692.989655067
11195.643194838794	4968332.595060006
11403.99601970033	4946574.67988694
11616.22632608502	4924411.84621026
11832.40627458378	4901836.5584277185
12052.609368708414	4878841.140698224
12276.910479883603	4855417.774331974
12505.385872903913	4831558.495132024
12738.113231864783	4810167.889905031
12975.171686575868	4790050.775953924
13216.641839466038	4769559.279089141
13462.60579298911	4748686.43198095
13713.147177539455	4727425.137636438
13968.351179887397	4705768.16698644
14228.30457214352	4683708.156427583
14493.09574126215	4661237.60531858
14762.81471909391	4638348.873429938
15037.553212997384	4615034.178346199
15317.404637020798	4591285.5928198155
15602.46414366368	4567095.042075821
15892.828656229764	4543189.142258436
16188.596901781993	4523041.0572574865
16489.86944471065	4502518.0129663525
16796.74872092653	4481613.031328842
17109.339072690134	4460319.00442595
17427.746784089173	4438628.692059089
17752.08011717636	4416534.719288343
18082.44934877952	4394029.573924917
18418.96680799711	4371105.603976887
18761.746914391195	4347755.015047477
19110.90621689136	4323969.867684848
19466.56343342263	4299742.074682611
19828.83949127071	4275063.398330105
20197.857568198782	4253373.366608327
20573.743134329114	4233052.426427201
20956.623994804308	4212353.310091576
21346.630333242454	4191268.979678864
21743.8947560008	4169792.2662895476
22148.55233726359	4147915.8676096634
22560.74066496859	4125632.345427949
22980.599887588487	4102934.1231067586
23408.272761782944	4079813.483005929
23843.904700937208	4056262.5638587107
24287.643824604504	4032273.358098834
24739.64100886812	4007837.709137857
25200.049937640895	3983890.120962008
25669.027154919517	3963982.75881691
26146.732118010917	3943704.9172749375
26633.327251749808	3923049.7016514745
27128.978003724646	3902010.088950649
27633.852900531667	3880578.9254774447
28148.123605075813	3858748.9244053625
28671.964974937695	3836512.6632988253
29205.55512182745	3813862.5815894636
29749.075472144435	3790790.9780054395
30302.71082866393	3767290.007952952
30866.649433372742	3743351.68084895
31441.08303147265	3718967.857404299
32026.206936576502	3697941.5822492763
32622.220097116733	3678272.466455131
33229.325163989684	3658237.3050692426
33847.72855945983	3637829.285920855
34477.640547344636	3617041.4700635746
35119.275304507275	3595866.7894160175
35772.850993678774	3574298.0443586083
36438.58983763541	3552327.901285634
37116.71819475767	3529948.8901117174
37807.466635993485	3507153.4017319335
38511.070023255685	3483933.685434613
39227.76758927723	3460281.8462660215
39957.803018952654	3437304.629927404
40701.42453219439	3418400.2954754955
41458.88496832911	3399144.148142755
42230.441872066716	3379529.640631604
43016.35758106799	3359550.1037981412
43816.89931514194	3339198.744384576
44632.33926710397	3318468.642709416
45462.95469532399	3297352.750314731
46309.02801799736	3275843.8875695853
47170.84690917023	3253934.7412288887
48048.704396551344	3231617.8619468217
48942.89896114532	3208885.6617439673
49853.73463873894	3185730.4114273153
50781.5211232767	3166123.280590353
51726.57387216024	3147771.698054842
52689.21421350677	3129078.589445717
53669.76945540476	3110037.598904634
54668.57299720181	3090642.2522896403
55685.96444286408	3070885.9549739077
56722.28971644549	3050761.989603475
57777.90117970507	3030263.51381329
58853.1577519145	3009383.557900709
59948.42503189408	2988115.022455747
61064.07542232036	2966450.6759471847
62200.48825634718	2944383.1522637797
63358.04992658254	2923137.89818688
64537.15401646702	2905783.461326998
65738.20143409586	2888106.055444194
66961.60054853215	2870099.670029993
68207.76732865692	2851758.182719337
69477.1254846024	2833075.3572089192
70770.10661181889	2814044.8411367573
72087.15033782135	2794660.163922336
73428.70447166759	2774914.7345665377
74795.22515621828	2754801.839410621
76187.17702322999	2734314.6398535264
77605.0333513357	2713446.170026656
79049.2762269642	2692189.3344254107
80520.39670825469	2674497.0195828197
82018.8949920221	2657898.0258042477
83545.28058382872	2640990.1219270397
85100.07247122246	2623767.559081698
86683.79930019773	2606224.4814112806
88296.99955494082	2588354.924080358
89940.22174092053	2570152.8112468924
91614.0245713852	2551611.953996401
93318.9771573324	2532726.0482376395
95055.65920101192	2513488.6725591575
96824.66119303115	2493893.286045944
98626.5846131283	2473933.226055446
100462.04213468132	2454892.602020584
102331.65783302448	2439406.2142012487
104236.06739764012	2423631.622069494
106175.9183482999	2407563.4620940257
108151.87025522892	2391196.270927317
110164.59496336569	2374524.4835480237
112214.77682079801	2357542.4313687976
114303.11291144785	2340244.3403089186
116430.31329208757	2322624.3288310417
118597.10123376705	2304676.4059414086
120804.21346773289	2286394.4691528557
123052.40043592616	2267772.3024098873
125342.42654613995	2248803.573975159
127675.07043192645	2233270.09833857
130051.12521734099	2218638.412745576
132471.39878661174	2203734.42899403
134936.71405883064	2188553.0795688657
137447.90926775365	2173089.202647703
140005.8382468096	2157337.540345764
142611.37071941295	2141292.736928146
145265.39259467812	2124949.3369888077
147968.80626863963	2108301.783595673
150722.53093107554	2091344.4164012095
153527.5028780421	2074071.4697178612
156384.67583022476	2056477.0705576378
159295.0212572123	2039847.5759886242
162259.5287078087	2026347.2576350865
165279.2061464897	2012595.6960598284
168355.08029612005	1998588.2155837482
171488.19698705408	1984320.0535125472
174679.62151272455	1969786.358517391
177930.43899185772	1954982.1889853796
181241.75473742394	1939902.511339358
184614.69463245454	1924542.1983264498
188050.40551285836	1908896.0272747187
191550.0555573528	1892958.6783174276
195114.83468466165	1876724.7325842062
198745.9549580986	1860188.6703585857
202444.65099768018	1846853.159371275
206212.18039991445	1834224.9135204228
210049.8241653915	1821361.6538655164
213958.88713434213	1808259.0067596713
217940.6984302958	1794912.5171616923
221996.61191199525	1781317.647121312
226128.00663372793	1767469.7742362292
230336.2873142131	1753364.1900804588
234622.88481422624	1738996.0986033992
238989.25662310526	1724360.6144991335
243436.8873543108	1709452.7615453757
247967.289250216	1694267.4709114844
252582.00269627848	1680047.0147556614
257282.59674479323	1668499.5713930933
262070.66964838552	1656737.2281446804
266947.8494034318	1644755.9856869841
271915.7943036019	1632551.770268467
276976.1935036891	1620120.432324394
282130.76759394706	1607457.7450659138
287381.2691851069	1594559.4030429209
292729.4835042813	1581421.0206801516
298177.22900196735	1568038.130786035
303726.3579703311	1554406.1830338114
309378.75717301364	1540520.5424143614
315136.34848664823	1526376.4876602576
321001.08955431683	1515133.9071177652
326974.97445117676	1504419.172815838
333060.03436245886	1493505.0354853768
339258.33827409917	1482387.7842020902
345571.9936762143	1471063.638980754
352003.1472796675	1459528.7494899805
358553.9857459817	1447779.1937430496
365226.7364308175	1435810.9767644138
372023.6681413066	1423620.029231341
378947.09190746717	1411202.206090315
385999.36176797637	1398553.2851476697
393182.87557057705	1385668.965633989
400500.07578736113	1373713.8403759564
407953.45034524484	1363986.5967288797
415545.53347188793	1354078.3274223816
423278.90655735444	1343985.6635381398
431156.19903182285	1333705.1734616836
439180.0892596086	1323233.361715618
447353.3054498463	1312566.6677711178
455678.6265841068	1301701.4648373076
464158.8833612772	1290634.0586281219
472796.9591600391	1279360.6861061952
481595.79101923504	1267877.514203405
490558.37063650455	1256180.6385175742
499687.7453854889	1244266.0819849353
508987.0193519675	1234924.7791537452
518459.3543892913	1225956.9616443089
528107.971193433	1216822.251525097
537936.1503980698	1207517.5428962405
547947.2336900292	1198039.672056548
558144.6249454955	1188385.4164278146
568531.7913873753	1178551.4934590994
579112.2647641759	1168534.5595106361
589889.6425508494	1158331.2087169513
600867.5891719692	1147937.9718288332
612049.837247669	1137351.3150337585
623440.1888627863	1126567.6387543422
635042.5168595961	1116652.7989683629
646860.7661546321	1108558.1037198105
658898.9550799957	1100312.7648153207
671161.1767496272	1091913.9787508263
683651.6004510238	1083358.889848567
696374.4730628222	1074644.5892861376
709334.1204987989	1065768.114107451
722534.9491787221	1056726.446215303
735981.4475265755	1047516.5113451899
749678.1874966878	1038135.1780200172
763629.8261282243	1028579.2564853732
777841.1071286482	1018845.4976249732
792316.8624866261	1008930.5918559222
807062.0141149492	1001258.2141986886
822081.575524054	993833.5524776034
837380.6535266489	986270.7165385395
852964.4499741016	978567.134935788
868838.2635251193	970720.188368598
885007.4914473438	962727.2087905883
901477.6314524917	954585.4785025787
918254.2835656281	946292.2292285452
935343.1520292377	937844.641174376
952750.0472427299	929239.842069111
970480.8877380306	920474.906188339
988541.7021919573	911546.85335942
1006938.6314760271	903412.4201988433
1025677.9307444209	896741.04597841
1044765.9715608053	889945.5163485593
1064209.2440647245	883023.5207559981
1084014.359178331	875972.7056476399
1104188.0508541602	868790.6736703776
1124737.1783647507	861474.9828559526
1145668.7286348727	854023.1457906612
1166989.8186171474	846432.6287696117
1188707.6977119034	838700.8509352279
1210829.7502320393	830825.1833997387
1233363.4979137746	822802.9483513221
1256316.6024741214	814631.418143622
1279696.8682159416	808387.1397426053
1303512.2446815087	802292.6688828489
1327770.829355429	796084.7788833812
1352480.8704178738	789761.3589947145
1377650.769549055	783320.2591859507
1403289.084785873	776759.2894137551
1429404.533431761	770076.2188777104
1456005.9950206485	763268.7752618258
1483102.514336103	756334.6439619226
1510703.3044866556	749271.4672986433
1538817.7500383465	742076.8437158195
1567455.410205595	734748.3269639108
1596626.022101425	728131.3255518452
1626339.5040481905	722674.814351043
1656605.9589499151	717116.7565483351
1687435.6777273756	711455.262344183
1718839.1428171454	705688.4067695551
1750827.0317357269	699814.2290314169
1783410.220710006	693830.7318460476
1816599.7883753285	687735.8807599285
1850407.019542302	681527.6034580225
1884843.4090337954	675203.7890591525
1919920.6655932867	668762.2873982842
1955650.715865947	662200.9082954485
1992045.7084538713	655517.4208110496
2029118.0180466783	650471.9678457744
2066880.2496290822	645503.1798918772
2105345.242766708	640441.9219486885
2144526.0759716653	635286.4731339748
2184436.0711494284	630035.0805395874
2225088.7981283693	624685.958635463
2266498.079273693	619237.2886625187
2308677.994187172	613687.218014253
2351642.884494346	608033.8596068467
2395407.358720879	602275.2912375246
2439986.29725955	596409.5549309952
2485394.857429798	590434.6562737112
2531648.478631358	585088.1675313249
2578762.8875937983	580652.0902871484
2626754.1037238385	576133.4568906318
2675638.4445520453	571530.7309577342
2725432.531281028	566842.3475120438
2776153.2944368036	562066.7124526728
2827817.979625338	557202.2020122444
2880444.1533962977	552247.1622047933
2934049.709215787	547199.9082633962
2988652.873550383	542058.7240673293
3044272.2120643063	536821.86155857
3100926.6359319235	531487.5401474405
3158635.408267819	526053.946107182
3217418.1506763715	522000.320658395
3277294.849923382	517970.90909856424
3338285.8647317644	513866.50950397586
3400411.9327037027	509685.726334545
3463694.1773717343	505427.13807894464
3528154.1153808828	501089.29677128396
3593813.6638046256	496670.72749877826
3660695.147596906	492169.92790026456
3728821.30718283	487585.36765538563
3798215.306190736	482915.48796425824
3868900.7393279755	478158.7010174714
3940901.6404034477	473313.3894562092
4014242.490499326	469016.3851316822
4088948.226294856	465427.00561185344
4165044.248545185	461770.82712840557
4242556.430717777	458046.6065412604
4321511.127789762	454253.07757529034
4401935.1852088785	450388.9503897712
4483855.948021181	446452.9111398264
4567301.270168747	442443.62152969855
4652299.523960189	438359.7183577218
4738879.609717651	434199.8130528142
4827070.965603188	429962.49120234937
4916903.577628021	425646.3120712425
5008407.989848212	421249.8081120809
5101615.314749833	418007.673145664
5196557.243827657	414753.810205209
5293266.058360566	411439.3923217672
5391774.640387494	408063.2925575477
5492116.483887789	404624.3630022514
5594325.706169377	401121.4343827772
5698437.0594691355	397553.3156656502
5804485.942768984	393918.79365206044
5912508.413831869	390216.63256536296
6022541.201461928	386445.5736308962
6134621.717992506	382604.33464799164
6248788.072006888	378691.6095540049
6365079.081295578	375252.57219734386
6483534.286054714	372359.1597282848
6604193.962330305	369411.9003608443
6727099.135712336	366409.79199508246
6852291.595284057	363351.81388180715
6979813.907830667	360236.92627550993
7109709.432312423	357064.07008084387
7242022.334607315	353832.16649251356
7376797.60252773	350540.1166284773
7514081.061116962	347186.80115630914
7653919.388230155	343771.07991261716
7796360.130405221	340291.7915153754
7941451.71902934	336747.75296903844
8089243.486805938	334163.8916499977
8239785.684528512	331545.0533953979
8393129.498166373	328877.47811526875
8549327.066268368	326160.258805273
8708431.497690724	323392.4715815666
8870496.889654402	320573.1753666717
9035578.34613892	317701.4115694977
9203731.99661823	314776.2037594101
9375015.01514529	311796.55733423546
9549485.639791967	308761.4591820838
9727203.192450536	305669.8773368803
9908228.099003786	302520.76062748657
10092621.909870483	299777.5310969632
10280447.320933098	297452.04459558346
10471768.194855202	295083.28039471724
10666649.582795387	292670.4330890139
10865157.746525371	290212.6822843909
11067360.180959744	287709.19231909275
11273325.63710487	285159.1119795567
11483124.14543511	282561.57421099057
11696827.039703846	279915.6958225649
11914506.981197748	277220.5771871184
12136237.983442418	274475.30193527555
12362095.437367693	271678.93664387125
12592156.13694151	268840.9034869883
12826498.3052806	266777.11483665893
13065201.621247198	264674.91872838105
13308347.24654076	262533.6003928266
13556017.853293689	260352.43175868975
13808297.652180923	258130.67120513256
14065272.421052363	255867.56330962802
14327029.534098294	253562.33859110664
14593657.991557576	251214.21324832563
14865248.449978571	248822.38889336816
15141893.25304352	246386.05228018173
15423686.462966273	243904.37502806672
15710723.892474487	241376.51334001758
16003103.137387017	239194.08491772253
16300923.609797413	237329.42816640585
16604286.571875297	235430.06983566488
16913295.17029647	233495.36412320155
17228054.471313924	231524.65320822754
17548671.49648152	229517.26702779738
17875255.259042352	227472.52304898092
18207916.800994623	225389.72603679332
18546769.230846975	223268.1678178084
18891927.762076646	221107.12703937248
19243509.75230332	218905.86892433575
19601634.743191857	216663.64502122093
19966424.501097932	214404.69972044294
20338003.0584698	212751.50642486726
20716496.75602067	211067.54692076024
21102034.285685964	209352.2486437459
21494746.734379806	207605.02837392813
21894767.628566206	205825.29203758916
22302232.979659364	204012.4345051982
