# Frequency (Hz)	Real Part (Ohm/m)
1000.0	24338615.598508656
1018.6101701559753	24337559.093428902
1037.566678745186	24336482.926609848
1056.875971184804	24335386.732143156
1076.5446128423157	24334270.13731093
1096.5792912678098	24333132.76245888
1116.9868184678226	24331974.220867287
1137.7741332214914	24330794.118619557
1158.9483034398106	24329592.05446819
1180.5165285688054	24328367.619698428
1202.4861420374123	24327120.397989262
1224.8646137509306	24325849.965271868
1247.6595526308697	24324555.889585417
1270.8787092020582	24317708.12229682
1294.529978227916	24305424.33085367
1318.6214013947485	24292911.935961608
1343.1611700460153	24280166.683271535
1368.1576279674719	24267184.23926021
1393.619274224142	24253960.18975681
1419.5547660501015	24240490.038441993
1445.9729217920194	24226769.205319185
1472.882723907502	24212793.025157288
1500.2933220192183	24198556.74590443
1528.2140360258693	24184055.52707229
1556.654359271062	24169284.438090228
1585.6239617711371	24154048.899404895
1615.132693503091	24131068.545488972
1645.1905877536624	24107660.52327642
1675.807864530767	24083816.873787478
1706.9949340384078	24059529.489924405
1738.7624002162504	24034790.113714997
1771.1210643450886	24009590.33350478
1804.0819287193826	23983921.581096966
1837.6562003881704	23957775.12883914
1871.8552949655793	23931142.086655814
1906.690840512252	23904013.399025712
1942.1746814890264	23876379.84190269
1978.3188827841643	23848232.019579597
2015.1357338155585	23817238.054846562
2052.6377527092523	23783650.51823401
2090.8376905557498	23749437.91184998
2129.748535745521	23714588.603039663
2169.3835183851843	23679090.742662575
2209.756114795903	23642932.261063706
2250.880052095462	23606100.86396969
2292.7693128656488	23568584.028308667
2335.438139906479	23530368.99795228
2378.9010410788933	23491442.779378444
2423.1727942376006	23451792.13725343
2468.2684522556924	23411403.589931663
2514.2033481427966	23370215.795269057
2560.9931002584594	23327348.516856473
2608.6536176225477	23283683.471098498
2657.2011053245064	23239205.811409086
2706.652070033241	23193900.414904717
2757.0233256095826	23147751.87726243
2808.3319988231724	23100744.507482156
2860.5955351757416	23052862.322551697
2913.831704832789	23004089.04201223
2968.0586086656026	22954408.082422882
3023.2946844057765	22903802.55172205
3079.5587129142264	22852255.24348404
3136.8698245668766	22799748.631068636
3195.2475057592133	22747620.52807595
3254.711605531848	22695586.483651627
3315.282342319423	22642584.07680666
3376.9803108250912	22588595.28615164
3439.8264890229243	22533601.75491602
3503.8422452906757	22477584.78470661
3569.0493456752292	22420525.32914999
3635.4699612933177	22362403.987416454
3703.126675869927	22303200.99762356
3772.0424934169973	22242896.230116885
3842.240846055061	22181469.18062568
3913.745601980384	22118898.963291276
3986.581073580439	22055590.426167287
4060.7720257003657	21996407.964561805
4136.343684063274	21936124.107275598
4213.321743847289	21874718.357147638
4291.732378422157	21812169.835561246
4371.602248248501	21748457.275345113
4452.958509942655	21683559.013542287
4535.828825510186	21617452.984044485
4620.241371751313	21550116.710089393
4706.224849841281	21481527.29661833
4793.808495089106	21411661.422491677
4883.02208687788	21340495.332559418
4973.895958790063	21268004.8295842
5066.461008921268	21199371.0525028
5160.7487103859075	21133148.961784914
5256.791122018419	21065694.466690686
5354.620899273607	20996984.631964974
5454.271305329836	20926996.095523607
5555.7762223988775	20855705.060510132
5659.170163246242	20783087.287204448
5764.488282925873	20709118.08478119
5871.766390733255	20633772.302914534
5981.040962380945	20557024.323226802
6092.349152400711	20478848.050577957
6205.7288067765	20399216.904192965
6321.218475812449	20319277.65998074
6438.8574272404185	20248513.362913843
6558.685659571435	20176432.130237553
6680.743915695614	20103009.45355611
6805.073696735206	20028220.368368328
6931.717276155407	19952039.445579384
7060.717714137772	19874440.7828547
7192.118872221193	19795397.99581283
7325.96542821523	19714884.209054504
7462.302891391108	19632872.047024723
7601.17761795533	19549333.62470468
7742.636826811269	19464240.538130723
7886.728615614156	19377563.85473651
8033.501977124735	19298114.119993288
8183.00681586739	19222830.258426677
8335.293965098195	19146145.35138632
8490.415204088747	19068033.32517754
8648.423275731726	18988467.620869786
8809.37190447399	18907421.185266286
8973.31581458352	18824866.461705666
9140.310748756232	18740775.38069242
9310.413487069076	18655119.350352895
9483.681866285926	18567869.246713877
9660.174799522645	18478995.403800014
9839.952296278227	18388467.6035471
10023.075482838643	18298335.524303656
10209.606623060476	18221224.326575097
10399.609139541202	18142678.076335873
10593.1476351837	18062670.067014597
10790.287915161836	17981173.095026005
10991.097009294961	17898159.450521506
11195.643194838794	17813600.907967504
11403.99601970033	17727468.716548447
11616.22632608502	17639733.59039116
11832.40627458378	17550365.698607445
12052.609368708414	17459334.655151147
12276.910479883603	17366609.508486643
12505.385872903913	17272158.73106498
12738.113231864783	17187815.869830333
12975.171686575868	17108712.97879298
13216.641839466038	17028137.96949358
13462.60579298911	16946063.445560794
13713.147177539455	16862461.50077216
13968.351179887397	16777303.70956564
14228.30457214352	16690561.117374653
14493.09574126215	16602204.230783232
14762.81471909391	16512203.007497873
15037.553212997384	16420526.846132934
15317.404637020798	16327144.575805763
15602.46414366368	16232024.445538238
15892.828656229764	16138132.870607989
16188.596901781993	16059644.465419227
16489.86944471065	15979695.377654634
16796.74872092653	15898258.423762936
17109.339072690134	15815305.91430232
17427.746784089173	15730809.644525781
17752.08011717636	15644740.884791145
18082.44934877952	15557070.370792735
18418.96680799711	15467768.293611165
18761.746914391195	15376804.28957796
19110.90621689136	15284147.429951627
19466.56343342263	15189766.210401522
19828.83949127071	15093628.54029607
20197.857568198782	15009700.31739848
20573.743134329114	14931407.545409592
20956.623994804308	14851657.731611995
21346.630333242454	14770423.760209708
21743.8947560008	14687678.010777196
22148.55233726359	14603392.348868053
22560.74066496859	14517538.116449073
22980.599887588487	14430086.122156167
23408.272761782944	14341006.631368985
23843.904700937208	14250269.356100857
24287.643824604504	14157843.444700493
24739.64100886812	14063697.471362151
25200.049937640895	13971590.575870082
25669.027154919517	13895807.822843678
26146.732118010917	13818614.739888575
26633.327251749808	13739985.080524808
27128.978003724646	13659892.109820986
27633.852900531667	13578308.595304063
28148.123605075813	13495206.797700046
28671.964974937695	13410558.46150237
29205.55512182745	13324334.80536462
29749.075472144435	13236506.512314681
30302.71082866393	13147043.719786588
30866.649433372742	13055916.009466892
31441.08303147265	12963092.396952234
32026.206936576502	12883677.2577911
32622.220097116733	12809727.847173838
33229.325163989684	12734402.225442072
33847.72855945983	12657674.781072758
34477.640547344636	12579519.425908098
35119.275304507275	12499909.58628524
35772.850993678774	12418818.194000883
36438.58983763541	12336217.677107956
37116.71819475767	12252079.950540658
37807.466635993485	12166376.406565422
38511.070023255685	12079077.905053828
39227.76758927723	11990154.763574734
39957.803018952654	11903941.992747704
40701.42453219439	11833747.652810512
41458.88496832911	11762246.984263107
42230.441872066716	11689415.676107774
43016.35758106799	11615228.964914974
43816.89931514194	11539661.626403572
44632.33926710397	11462687.966864238
45462.95469532399	11384281.81442335
46309.02801799736	11304416.510144264
47170.84690917023	11223064.898962973
48048.704396551344	11140199.320455149
48942.89896114532	11055791.599431219
49853.73463873894	10969813.036356552
50781.5211232767	10897586.4107575
51726.57387216024	10830267.647168232
52689.21421350677	10761696.069933891
53669.76945540476	10691848.363979356
54668.57299720181	10620700.780332003
55685.96444286408	10548229.128046785
56722.28971644549	10474408.765981045
57777.90117970507	10399214.594416294
58853.1577519145	10322621.046523983
59948.42503189408	10244602.079672555
61064.07542232036	10165131.166572623
62200.48825634718	10084181.286257442
63358.04992658254	10006411.50773653
64537.15401646702	9943486.769017734
65738.20143409586	9879390.990204372
66961.60054853215	9814102.378041
68207.76732865692	9747598.73369602
69477.1254846024	9679857.445213793
70770.10661181889	9610855.479826322
72087.15033782135	9540569.376121901
73428.70447166759	9468975.236067936
74795.22515621828	9396048.716885388
76187.17702322999	9321765.02277198
77605.0333513357	9246098.896471307
79049.2762269642	9169024.610685138
80520.39670825469	9105351.295753501
82018.8949920221	9045822.256068276
83545.28058382872	8985185.370825296
85100.07247122246	8923420.022830214
86683.79930019773	8860505.211199194
88296.99955494082	8796419.544218397
89940.22174092053	8731141.232070513
91614.0245713852	8664648.07942608
93318.9771573324	8596917.47789672
95055.65920101192	8527926.398348136
96824.66119303115	8457651.383069906
98626.5846131283	8386068.537799625
100462.04213468132	8317922.632904931
102331.65783302448	8262948.468530096
104236.06739764012	8206951.225602063
106175.9183482999	8149911.864454869
108151.87025522892	8091810.991091133
110164.59496336569	8032628.850587893
112214.77682079801	7972345.320379695
114303.11291144785	7910939.90341672
116430.31329208757	7848391.721195565
118597.10123376705	7784679.506660316
120804.21346773289	7719781.596971565
123052.40043592616	7653675.926140737
125342.42654613995	7586340.01752747
127675.07043192645	7531564.448441571
130051.12521734099	7480111.870577226
132471.39878661174	7427701.751483873
134936.71405883064	7374316.271156296
137447.90926775365	7319937.277955963
140005.8382468096	7264546.282439263
142611.37071941295	7208124.45107088
145265.39259467812	7150652.599820228
147968.80626863963	7092111.187638623
150722.53093107554	7032480.309815142
153527.5028780421	6971739.691208823
156384.67583022476	6909868.679354851
159295.0212572123	6851501.693167328
162259.5287078087	6804435.71461693
165279.2061464897	6756493.830197149
168355.08029612005	6707659.739150725
171488.19698705408	6657916.837360504
174679.62151272455	6607248.211703925
177930.43899185772	6555636.634302303
181241.75473742394	6503064.556663213
184614.69463245454	6449514.10371382
188050.40551285836	6394967.067723098
191550.0555573528	6339404.902111088
195114.83468466165	6282808.715142802
198745.9549580986	6225159.263504854
202444.65099768018	6178934.653913116
206212.18039991445	6135253.399225771
210049.8241653915	6090759.228956076
213958.88713434213	6045437.014606713
217940.6984302958	5999271.346136454
221996.61191199525	5952246.526720615
226128.00663372793	5904346.567413877
230336.2873142131	5855555.181713983
234622.88481422624	5805855.78002407
238989.25662310526	5755231.464012054
243436.8873543108	5703665.020865029
247967.289250216	5651138.917436694
252582.00269627848	5602034.049766975
257282.59674479323	5562374.216967316
262070.66964838552	5521976.307930891
266947.8494034318	5480826.586933365
271915.7943036019	5438911.062626189
276976.1935036891	5396215.483279487
282130.76759394706	5352725.331936239
287381.2691851069	5308425.821476373
292729.4835042813	5263301.889589034
298177.22900196735	5217338.193651155
303726.3579703311	5170519.10551088
309378.75717301364	5122828.706173771
315136.34848664823	5074250.780390181
321001.08955431683	5035825.784563077
326974.97445117676	4999260.912918248
333060.03436245886	4962015.562790377
339258.33827409917	4924077.07035911
345571.9936762143	4885432.536128231
352003.1472796675	4846068.820539726
358553.9857459817	4805972.539506139
365226.7364308175	4765130.059859899
372023.6681413066	4723527.4947178485
378947.09190746717	4681150.698759579
385999.36176797637	4637985.263417866
393182.87557057705	4594016.511979581
400500.07578736113	4553279.875619385
407953.45034524484	4520275.414400977
415545.53347188793	4486656.734543379
423278.90655735444	4452412.405333223
431156.19903182285	4417530.78332958
439180.0892596086	4382000.008405138
447353.3054498463	4345807.999713576
455678.6265841068	4308942.451581977
464158.8833612772	4271390.82932676
472796.9591600391	4233140.364991734
481595.79101923504	4194178.0530068926
490558.37063650455	4154490.6457663435
499687.7453854889	4114064.649123992
508987.0193519675	4082498.597307288
518459.3543892913	4052227.422236923
528107.971193433	4021392.8954476793
537936.1503980698	3989984.5328682116
547947.2336900292	3957991.6553168143
558144.6249454955	3925403.3848704123
568531.7913873753	3892208.641165909
579112.2647641759	3858396.1376327826
589889.6425508494	3823954.377655505
600867.5891719692	3788871.6506645777
612049.837247669	3753136.02815482
623440.1888627863	3716735.359629518
635042.5168595961	3683310.961745611
646860.7661546321	3656112.8363151164
658898.9550799957	3628408.5491424343
671161.1767496272	3600188.6804714273
683651.6004510238	3571443.635242663
696374.4730628222	3542163.639831056
709334.1204987989	3512338.7387226736
722534.9491787221	3481958.7911297726
735981.4475265755	3451013.467542847
749678.1874966878	3419492.246218429
763629.8261282243	3387384.409601646
777841.1071286482	3354679.040682081
792316.8624866261	3321365.019281905
807062.0141149492	3295672.8810199266
822081.575524054	3270828.684210821
837380.6535266489	3245522.132671712
852964.4499741016	3219744.6219023988
868838.2635251193	3193487.3872714685
885007.4914473438	3166741.5010362323
901477.6314524917	3139497.869307188
918254.2835656281	3111747.2289559976
935343.1520292377	3083480.144465935
952750.0472427299	3054687.004723697
970480.8877380306	3025358.0197515334
988541.7021919573	2995483.2173785376
1006938.6314760271	2968294.352070804
1025677.9307444209	2946052.7490518666
1044765.9715608053	2923397.2260162043
1064209.2440647245	2900320.079841879
1084014.359178331	2876813.4640505346
1104188.0508541602	2852869.3861395223
1124737.1783647507	2828479.704864357
1145668.7286348727	2803636.1274706093
1166989.8186171474	2778330.206874284
1188707.6977119034	2752553.3387897075
1210829.7502320393	2726296.7588039874
1233363.4979137746	2699551.53939702
1256316.6024741214	2672308.5869060266
1279696.8682159416	2651548.905427335
1303512.2446815087	2631297.1695518675
1327770.829355429	2610668.5454258057
1352480.8704178738	2589656.019094673
1377650.769549055	2568252.446073107
1403289.084785873	2546450.548915668
1429404.533431761	2524242.914742407
1456005.9950206485	2501621.9927184186
1483102.514336103	2478580.0914864796
1510703.3044866556	2455109.3765518926
1538817.7500383465	2431201.8676186954
1567455.410205595	2406849.4358762437
1596626.022101425	2384882.2477959422
1626339.5040481905	2366803.3624670375
1656605.9589499151	2348388.0260059307
1687435.6777273756	2329629.9769998044
1718839.1428171454	2310522.8375098794
1750827.0317357269	2291060.110902852
1783410.220710006	2271235.179641973
1816599.7883753285	2251041.303036994
1850407.019542302	2230471.614952289
1884843.4090337954	2209519.1214722735
1919920.6655932867	2188176.6985234
1955650.715865947	2166437.089451912
1992045.7084538713	2144292.902556474
2029118.0180466783	2127614.357897347
2066880.2496290822	2111194.2552259285
2105345.242766708	2094468.571649815
2144526.0759716653	2077431.6202563785
2184436.0711494284	2060077.6082985667
2225088.7981283693	2042400.635225334
2266498.079273693	2024394.690675365
2308677.994187172	2006053.6524335004
2351642.884494346	1987371.284349122
2395407.358720879	1968341.2342157725
2439986.29725955	1948957.0316113657
2485394.857429798	1929212.0856981536
2531648.478631358	1911558.0641644334
2578762.8875937983	1896932.3565663616
2626754.1037238385	1882034.4620612338
2675638.4445520453	1866859.315204403
2725432.531281028	1851401.7562824236
2776153.2944368036	1835656.529558709
2827817.979625338	1819618.281486525
2880444.1533962977	1803281.55888871
2934049.709215787	1786640.8071035598
2988652.873550383	1769690.368096166
3044272.2120643063	1752424.4785346228
3100926.6359319235	1734837.2678304506
3158635.408267819	1716922.7561424996
3217418.1506763715	1703583.242849061
3277294.849923382	1690325.7316970772
3338285.8647317644	1676821.496006709
3400411.9327037027	1663065.9441923187
3463694.1773717343	1649054.3992180703
3528154.1153808828	1634782.0970077047
3593813.6638046256	1620244.1848246874
3660695.147596906	1605435.719622229
3728821.30718283	1590351.666362608
3798215.306190736	1574986.8963051806
3868900.7393279755	1559336.185262577
3940901.6404034477	1543394.2118244094
4014242.490499326	1529265.911503432
4088948.226294856	1517477.899573743
4165044.248545185	1505470.5107362387
4242556.430717777	1493239.6623493414
4321511.127789762	1480781.1957928126
4401935.1852088785	1468090.8750537816
4483855.948021181	1455164.3852864674
4567301.270168747	1441997.3313450604
4652299.523960189	1428585.2362893522
4738879.609717651	1414923.5398625087
4827070.965603188	1401007.5969405414
4916903.577628021	1386832.6759529188
5008407.989848212	1372393.9572737655
5101615.314749833	1361762.8831982801
5196557.243827657	1351094.2510089902
5293266.058360566	1340227.0737593255
5391774.640387494	1329157.656491932
5492116.483887789	1317882.2354856622
5594325.706169377	1306396.9769758855
5698437.0594691355	1294697.9758509577
5804485.942768984	1282781.2543244385
5912508.413831869	1270642.7605826124
6022541.201461928	1258278.36740681
6134621.717992506	1245683.8707701322
6248788.072006888	1232854.988408018
6365079.081295578	1221585.6962650896
6483534.286054714	1212112.7282663255
6604193.962330305	1202463.4667212206
6727099.135712336	1192634.6307768836
6852291.595284057	1182622.878523186
6979813.907830667	1172424.8058564877
7109709.432312423	1162036.9453222002
7242022.334607315	1151455.7649358117
7376797.60252773	1140677.666981982
7514081.061116962	1129698.986791274
7653919.388230155	1118515.991494128
7796360.130405221	1107124.8787516507
7941451.71902934	1095521.775462768
8089243.486805938	1087073.0662813883
8239785.684528512	1078510.1822057657
8393129.498166373	1069787.9414004697
8549327.066268368	1060903.3782096468
8708431.497690724	1051853.47178608
8870496.889654402	1042635.1450640756
9035578.34613892	1033245.2637132215
9203731.99661823	1023680.6350726823
9375015.01514529	1013938.0070656649
9549485.639791967	1004014.0670936708
9727203.192450536	993905.4409101804
9908228.099003786	983608.6914733716
10092621.909870483	974643.4188065539
10280447.320933098	967048.5091716009
10471768.194855202	959312.2569760223
10666649.582795387	951432.0318107138
10865157.746525371	943405.154314212
11067360.180959744	935228.8952616783
11273325.63710487	926900.4746369388
11483124.14543511	918417.060687242
11696827.039703846	909775.7689604375
11914506.981197748	900973.6613242301
12136237.983442418	892007.7449671805
12362095.437367693	882874.9713811233
12592156.13694151	873606.1988346565
12826498.3052806	866872.9221387472
13065201.621247198	860014.33801782
13308347.24654076	853028.1144793723
13556017.853293689	845911.8761321274
13808297.652180923	838663.2033783696
14065272.421052363	831279.6315912595
14327029.534098294	823758.650276832
14593657.991557576	816097.7022204029
14865248.449978571	808294.1826170878
15141893.25304352	800345.4381861396
15423686.462966273	792248.7662688055
15710723.892474487	784001.4139093927
16003103.137387017	776883.9542327168
16300923.609797413	770805.9418986168
16604286.571875297	764614.8167207693
16913295.17029647	758308.4736499052
17228054.471313924	751884.7684614306
17548671.49648152	745341.5170263657
17875255.259042352	738676.494568722
18207916.800994623	731887.4349090477
18546769.230846975	724972.0296939082
18891927.762076646	717927.927611017
19243509.75230332	710752.7335897667
19601634.743191857	703444.0079868794
19966424.501097932	696080.9410231254
20338003.0584698	690696.6143976965
20716496.75602067	685212.0845375921
21102034.285685964	679625.4866435658
21494746.734379806	673934.9212121384
