Frequency [GHz]	Zx imag [Ohm/m]	Zy imag [Ohm/m]
1.000000000000000166e-10	2.169699038043618668e+06	1.532316055066398345e+06
1.032794731918951654e-10	2.169697846209547017e+06	1.532314455525368685e+06
1.066664958279539403e-10	2.169696615289597306e+06	1.532312803527819924e+06
1.101645949633656381e-10	2.169695344001957215e+06	1.532311097353454214e+06
1.137774133221491146e-10	2.169694031022780109e+06	1.532309335225557908e+06
1.175087130904807540e-10	2.169692674984802492e+06	1.532307515309149399e+06
1.213623798344240958e-10	2.169691274475923274e+06	1.532305635709069902e+06
1.253424265461399975e-10	2.169689828037730884e+06	1.532303694468009984e+06
1.294529978227915867e-10	2.169688334163985215e+06	1.532301689564469736e+06
1.336983741824946476e-10	2.169686791299051140e+06	1.532299618910655612e+06
1.380829765218092491e-10	2.169685197836274747e+06	1.532297480350304628e+06
1.426113707194128486e-10	2.169683552116313949e+06	1.532295271656440338e+06
1.472882723907502473e-10	2.169681852425408084e+06	1.532292990529052680e+06
1.521185517986104510e-10	2.169680096993594896e+06	1.532290634592704009e+06
1.571072389247450498e-10	2.169678283992865589e+06	1.532288201394054340e+06
1.622595287078087593e-10	2.169676411535263527e+06	1.532285688399307430e+06
1.675807864530767868e-10	2.169674477670916822e+06	1.532283092991571408e+06
1.730765534195724819e-10	2.169672480386006646e+06	1.532280412468134193e+06
1.787525525904235329e-10	2.169670417600673623e+06	1.532277644037649734e+06
1.846146946324547531e-10	2.169668287166848779e+06	1.532274784817229491e+06
1.906690840512252406e-10	2.169666086866017431e+06	1.532271831829442177e+06
1.969220255479172543e-10	2.169663814406910446e+06	1.532268781999211991e+06
2.033800305846981002e-10	2.169661467423116323e+06	1.532265632150617195e+06
2.100498241653915480e-10	2.169659043470617384e+06	1.532262379003581824e+06
2.169383518385184289e-10	2.169656540025246795e+06	1.532259019170461455e+06
2.240527869300018610e-10	2.169653954480055720e+06	1.532255549152515130e+06
2.314005380130653023e-10	2.169651284142603166e+06	1.532251965336259920e+06
2.389892566231049743e-10	2.169648526232149918e+06	1.532248263989711879e+06
2.468268452255692806e-10	2.169645677876763046e+06	1.532244441258495906e+06
2.549214654451423314e-10	2.169642736110324506e+06	1.532240493161834311e+06
2.632815465648021228e-10	2.169639697869444266e+06	1.532236415588401025e+06
2.719157943036017723e-10	2.169636559990269132e+06	1.532232204292040551e+06
2.808331998823172083e-10	2.169633319205187261e+06	1.532227854887344642e+06
2.900430493863991314e-10	2.169629972139427438e+06	1.532223362845087890e+06
2.995549334359813486e-10	2.169626515307543799e+06	1.532218723487509415e+06
3.093787571730138678e-10	2.169622945109784603e+06	1.532213931983442744e+06
3.195247505759212065e-10	2.169619257828347385e+06	1.532208983343284810e+06
3.300034791125284578e-10	2.169615449623503722e+06	1.532203872413799632e+06
3.408258547423451742e-10	2.169611516529603396e+06	1.532198593872752041e+06
3.520031472796679687e-10	2.169607454450943042e+06	1.532193142223366071e+06
3.635469961293320139e-10	2.169603259157501627e+06	1.532187511788599892e+06
3.754694224073336536e-10	2.169598926280536689e+06	1.532181696705234936e+06
3.877828414589456106e-10	2.169594451308033429e+06	1.532175690917769913e+06
4.005000757873611052e-10	2.169589829580006190e+06	1.532169488172115060e+06
4.136343684063274911e-10	2.169585056283647195e+06	1.532163082009079168e+06
4.271993966306778827e-10	2.169580126448314171e+06	1.532156465757643804e+06
4.412092863191189219e-10	2.169575034940353129e+06	1.532149632528016577e+06
4.556786265841064474e-10	2.169569776457753032e+06	1.532142575204455527e+06
4.706224849841281415e-10	2.169564345524625387e+06	1.532135286437860224e+06
4.860564232142136024e-10	2.169558736485502683e+06	1.532127758638118161e+06
5.019965133110081441e-10	2.169552943499444984e+06	1.532119983966201777e+06
5.184593543892912175e-10	2.169546960533962585e+06	1.532111954326004256e+06
5.354620899273606527e-10	2.169540781358731445e+06	1.532103661355909193e+06
5.530224256192902378e-10	2.169534399539105128e+06	1.532095096420082729e+06
5.711586478126431938e-10	2.169527808429414406e+06	1.532086250599482097e+06
5.898896425508497150e-10	2.169521001166048925e+06	1.532077114682565909e+06
6.092349152400710261e-10	2.169513970660306048e+06	1.532067679155704100e+06
6.292146109610343618e-10	2.169506709591011982e+06	1.532057934193268185e+06
6.498495354469890483e-10	2.169499210396897513e+06	1.532047869647401618e+06
6.711611767496282870e-10	2.169491465268721804e+06	1.532037475037451135e+06
6.931717276155404727e-10	2.169483466141144279e+06	1.532026739539054222e+06
7.159041085964887260e-10	2.169475204684322234e+06	1.532015651972865686e+06
7.393819919175865964e-10	2.169466672295237891e+06	1.532004200792915886e+06
7.636298261282244400e-10	2.169457860088741407e+06	1.531992374074589694e+06
7.886728615614152294e-10	2.169448758888294920e+06	1.531980159502206603e+06
8.145371766280743462e-10	2.169439359216419980e+06	1.531967544356196187e+06
8.412497049736117954e-10	2.169429651284825988e+06	1.531954515499854693e+06
8.688382635251186617e-10	2.169419624984217808e+06	1.531941059365662513e+06
8.973315814583522479e-10	2.169409269873768557e+06	1.531927161941156490e+06
9.267593301146878953e-10	2.169398575170248281e+06	1.531912808754339581e+06
9.571521538991863169e-10	2.169387529736793600e+06	1.531897984858608572e+06
9.885417021919573871e-10	2.169376122071309481e+06	1.531882674817190971e+06
1.020960662306046580e-09	2.169364432603849098e+06	1.531867847426322056e+06
1.054442793526168950e-09	2.169352411899888422e+06	1.531853089743877761e+06
1.089022962263730067e-09	2.169339996980163734e+06	1.531837848087193677e+06
1.124737178364752061e-09	2.169327174916474614e+06	1.531822106584464898e+06
1.161622632608501755e-09	2.169313932356644422e+06	1.531805848843374057e+06
1.199717735435884489e-09	2.169300255510615185e+06	1.531789057934022276e+06
1.239062156947916503e-09	2.169286130136086605e+06	1.531771716371299699e+06
1.279696868215940940e-09	2.169271541523686610e+06	1.531753806096676737e+06
1.321664183946605026e-09	2.169256474481654819e+06	1.531735308459398802e+06
1.365007806546013663e-09	2.169240913320017979e+06	1.531716204197065439e+06
1.409772871628966933e-09	2.169224841834256891e+06	1.531696473415570101e+06
1.456005995020649598e-09	2.169208243288429454e+06	1.531676095568385208e+06
1.503755321299737753e-09	2.169191100397740956e+06	1.531655049435164779e+06
1.553070573933460069e-09	2.169173395310547668e+06	1.531633313099647174e+06
1.604003107056820079e-09	2.169155109589766711e+06	1.531610863926833728e+06
1.656605958949914401e-09	2.169136224193674512e+06	1.531587678539415821e+06
1.710933907269014249e-09	2.169116719456080813e+06	1.531563732793433592e+06
1.767043526088946692e-09	2.169096575065846089e+06	1.531539001753130695e+06
1.824993244816152494e-09	2.169075770045734011e+06	1.531513459664991125e+06
1.884843409033795523e-09	2.169054282730564941e+06	1.531487079930918524e+06
1.946656343342262358e-09	2.169032090744655114e+06	1.531459835080538644e+06
2.010496416260498236e-09	2.169009170978516340e+06	1.531431696742594708e+06
2.076430107255774870e-09	2.168985499564792030e+06	1.531402635615401203e+06
2.144526075971667793e-09	2.168961051853400189e+06	1.531372621436331887e+06
2.214855233726359314e-09	2.168935802385867573e+06	1.531341622950306395e+06
2.287490817355702788e-09	2.168909724868815392e+06	1.531309607877241680e+06
2.362508465477946229e-09	2.168882792146582622e+06	1.531276542878438719e+06
2.439986297259550245e-09	2.168854976172944531e+06	1.531242393521864200e+06
2.520004993764092080e-09	2.168826247981908266e+06	1.531207124246295076e+06
2.602647881969005809e-09	2.168796577657548245e+06	1.531170698324288940e+06
2.688001021537606561e-09	2.168765934302854817e+06	1.531133077823935775e+06
2.776153294436799262e-09	2.168734286007558461e+06	1.531094223569358932e+06
2.867196497493770032e-09	2.168701599814902991e+06	1.531054095099919243e+06
2.961225437988034610e-09	2.168667841687321663e+06	1.531012650628081989e+06
3.058338032378433485e-09	2.168632976470996160e+06	1.530969846995901316e+06
3.158635408267817403e-09	2.168596967859248165e+06	1.530925639630077872e+06
3.262222009711669644e-09	2.168559778354730923e+06	1.530879982495543780e+06
3.369205705980266915e-09	2.168521369230383076e+06	1.530832828047522344e+06
3.479697903887691433e-09	2.168481700489098672e+06	1.530784127182019176e+06
3.593813663804627762e-09	2.168440730822078884e+06	1.530733829184687464e+06
3.711671819475765297e-09	2.168398417565811425e+06	1.530681881678017555e+06
3.833395101766601886e-09	2.168354716657648794e+06	1.530628230566792190e+06
3.959110266468459240e-09	2.168309582589917816e+06	1.530572819981757319e+06
4.088948226294862618e-09	2.168262968362535816e+06	1.530515592221440515e+06
4.223044187206674123e-09	2.168214825434062630e+06	1.530456487692066235e+06
4.361537789208003199e-09	2.168165103671157267e+06	1.530395444845495513e+06
4.504573251759458750e-09	2.168113751296366099e+06	1.530332400115136057e+06
4.652299523960189308e-09	2.168060714834209997e+06	1.530267287849745480e+06
4.804870439655131104e-09	2.168005939055496361e+06	1.530200040245066863e+06
4.962444877628916452e-09	2.167949366919803899e+06	1.530130587273220532e+06
5.125186927053329472e-09	2.167890939516087063e+06	1.530058856609781738e+06
5.293266058360561204e-09	2.167830596001328435e+06	1.529984773558465065e+06
5.466857299720180771e-09	2.167768273537180852e+06	1.529908260973340366e+06
5.646141419303669251e-09	2.167703907224528491e+06	1.529829239178498508e+06
5.831305113526221869e-09	2.167637430035908241e+06	1.529747625885078916e+06
6.022541201461928965e-09	2.167568772745708469e+06	1.529663336105580442e+06
6.220048825634711276e-09	2.167497863858082797e+06	1.529576282065359876e+06
6.424033659394191079e-09	2.167424629532496445e+06	1.529486373111228226e+06
6.634708121092347870e-09	2.167348993506834842e+06	1.529393515617048368e+06
6.852291595284060743e-09	2.167270877017988823e+06	1.529297612886240240e+06
7.077010661181889919e-09	2.167190198719832115e+06	1.529198565051084850e+06
7.309099328602911004e-09	2.167106874598516151e+06	1.529096268968728371e+06
7.548799281653435948e-09	2.167020817884978838e+06	1.528990618113774806e+06
7.796360130405233414e-09	2.166931938964591362e+06	1.528881502467356157e+06
8.052039670825474778e-09	2.166840145283836871e+06	1.528768808402564609e+06
8.316104153230961616e-09	2.166745341253929771e+06	1.528652418566129869e+06
8.588828559546249041e-09	2.166647428151277360e+06	1.528532211756210774e+06
8.870496889654407999e-09	2.166546304014672060e+06	1.528408062796185724e+06
9.161402457138517586e-09	2.166441863539116457e+06	1.528279842404298717e+06
9.461848194721997291e-09	2.166333997966162860e+06	1.528147417059033178e+06
9.772146969725725887e-09	2.166222594970661215e+06	1.528010648860070156e+06
1.009262190987047331e-08	2.166107935505984351e+06	1.527872045160053531e+06
1.042360673976401127e-08	2.165990524380711373e+06	1.527735628299527336e+06
1.076544612842315905e-08	2.165869262789060827e+06	1.527594737684631255e+06
1.111849604819270880e-08	2.165744024456020910e+06	1.527449226599789690e+06
1.148312414543511117e-08	2.165614678965421859e+06	1.527298943517929642e+06
1.185971012337669343e-08	2.165481091624134220e+06	1.527143731942687649e+06
1.224864613750930795e-08	2.165343123321800958e+06	1.526983430245444877e+06
1.265033720395903769e-08	2.165200746973442845e+06	1.526818460893596755e+06
1.306520162124721228e-08	2.165054372859091032e+06	1.526651475755947176e+06
1.349367140588306343e-08	2.164903198444899172e+06	1.526479014385474380e+06
1.393619274224142065e-08	2.164747066306320950e+06	1.526300897190590389e+06
1.439322644719406651e-08	2.164585813856114168e+06	1.526116938690049574e+06
1.486524844997857277e-08	2.164419273175031412e+06	1.525926947319799801e+06
1.535275028780422776e-08	2.164247270836959127e+06	1.525730725233495701e+06
1.585623961771137302e-08	2.164069644264013506e+06	1.525528143542281119e+06
1.637624074521687477e-08	2.163887352040832397e+06	1.525324208876512479e+06
1.691329517029648562e-08	2.163699081593061332e+06	1.525113586228050757e+06
1.746796215127245689e-08	2.163504636866427492e+06	1.524896056266297121e+06
1.804081928719382751e-08	2.163303815377111081e+06	1.524671392467763042e+06
1.863246311931559514e-08	2.163096408000888303e+06	1.524439360880184220e+06
1.924350975230330612e-08	2.162882198755364865e+06	1.524199719878894044e+06
1.987459549580983990e-08	2.162660964575059712e+06	1.523952219915209804e+06
2.052637752709252173e-08	2.162434013320314232e+06	1.523702927482376108e+06
2.119953457536071000e-08	2.162199835313196760e+06	1.523446347838195972e+06
2.189476762856620985e-08	2.161957977501113899e+06	1.523181353733368684e+06
2.261280066337277307e-08	2.161708188026921824e+06	1.522907669217913877e+06
2.335438139906479724e-08	2.161450206773886923e+06	1.522625009292143863e+06
2.412028207618007283e-08	2.161183765094819013e+06	1.522333079609884415e+06
2.491130026067788373e-08	2.160908585532314144e+06	1.522031576171956025e+06
2.572825967447932303e-08	2.160626309554386418e+06	1.521727326471370645e+06
2.657201105324503850e-08	2.160335454645401798e+06	1.521415611182714114e+06
2.744343303228365032e-08	2.160035061227650847e+06	1.521093673274730798e+06
2.834343306151309448e-08	2.159724816488293465e+06	1.520761177499360638e+06
2.927294835042816131e-08	2.159404397355879657e+06	1.520417777614173014e+06
3.023294684405776334e-08	2.159073470163916703e+06	1.520063116021809867e+06
3.122442823092858392e-08	2.158731690303409006e+06	1.519696823397603352e+06
3.224842498408442807e-08	2.158381028015256859e+06	1.519326282262440072e+06
3.330600343624588813e-08	2.158020395475342404e+06	1.518948694731298136e+06
3.439826489022924478e-08	2.157647936087960377e+06	1.518558724318296416e+06
3.552634676578139226e-08	2.157263261994818226e+06	1.518155964930143906e+06
3.669142378402493899e-08	2.156865972617915832e+06	1.517739997155829333e+06
3.789470919074667737e-08	2.156455654242403340e+06	1.517310387829868821e+06
3.913745601980383687e-08	2.156031879585764371e+06	1.516866689581233775e+06
4.042095839796305955e-08	2.155596861677338835e+06	1.516416425182540668e+06
4.174655289253134782e-08	2.155150601947812364e+06	1.515960492794856429e+06
4.311561990318228626e-08	2.154689707250090316e+06	1.515489608226744458e+06
4.452958509942655287e-08	2.154213697634313256e+06	1.515003281125456560e+06
4.598992090522439315e-08	2.153722077410796657e+06	1.514501005057257134e+06
4.749814803228499868e-08	2.153214334633843042e+06	1.513982256980051752e+06
4.905583706365045989e-08	2.152689940568635240e+06	1.513446496698720846e+06
5.066461008921269181e-08	2.152151115316078532e+06	1.512900665485585341e+06
5.232614239486661694e-08	2.151600182036667597e+06	1.512352014264129335e+06
5.404216420705915059e-08	2.151031181048053317e+06	1.511785370172948577e+06
5.581446249454960394e-08	2.150443519824555144e+06	1.511200143140704371e+06
5.764488282925879445e-08	2.149836586408773903e+06	1.510595723744825693e+06
5.953533130814369715e-08	2.149209748774329200e+06	1.509971482576892478e+06
6.148777653810024108e-08	2.148562354167706333e+06	1.509326769587204326e+06
6.350425168595962148e-08	2.147896125966795720e+06	1.508666776298576500e+06
6.558685659571428548e-08	2.147217795380739495e+06	1.508008972328528762e+06
6.773775997517751128e-08	2.146517219124961179e+06	1.507329595853627892e+06
6.995920165435375620e-08	2.145793667658685707e+06	1.506627939409360988e+06
7.225349491787214948e-08	2.145046387516044080e+06	1.505903272330105072e+06
7.462302891391107044e-08	2.144274600521456450e+06	1.505154839988254244e+06
7.707027114212294845e-08	2.143477502979282290e+06	1.504381863008392742e+06
7.959777002314985573e-08	2.142655379887364339e+06	1.503585997640080517e+06
8.220815755240541849e-08	2.141822790279899258e+06	1.502800440048387274e+06
8.490415204088747078e-08	2.140962896119459532e+06	1.501989120306067867e+06
8.768856094587425811e-08	2.140074801960549317e+06	1.501151193550298456e+06
9.056428379445295063e-08	2.139157582991778851e+06	1.500285787211205810e+06
9.353431520292386860e-08	2.138210284072816372e+06	1.499392000103221508e+06
9.660174799522647250e-08	2.137231918739759829e+06	1.498468901486638701e+06
9.976977642363202159e-08	2.136221468177886680e+06	1.497515530098389834e+06
1.030416994950587396e-07	2.135201410915672779e+06	1.496577825345779536e+06
1.064209244064724761e-07	2.134149740579427686e+06	1.495613037569298642e+06
1.099109700929497372e-07	2.133063580996437930e+06	1.494616609836329473e+06
1.135154708920999096e-07	2.131941801101103425e+06	1.493587504522981122e+06
1.172381803286598596e-07	2.130783232734829187e+06	1.492524649976765038e+06
1.210829750232039531e-07	2.129586669429572765e+06	1.491426939400637057e+06
1.250538587290391570e-07	2.128350865151496604e+06	1.490293229700440308e+06
1.291549665014884007e-07	2.127103211219694465e+06	1.489174106409411412e+06
1.333905690039058854e-07	2.125822254989386071e+06	1.488032025874454295e+06
1.377650769549053468e-07	2.124499290142903570e+06	1.486852491114523495e+06
1.422830457214352017e-07	2.123132939018943347e+06	1.485634273828351637e+06
1.469491800624817218e-07	2.121721778776165098e+06	1.484376105432860786e+06
1.517683390283405561e-07	2.120264339911530726e+06	1.483076675742130494e+06
1.567455410205594968e-07	2.118759104730042163e+06	1.481734631603045855e+06
1.618859690178197646e-07	2.117238168930815998e+06	1.480403675498749828e+06
1.671949759731990056e-07	2.115685203263951465e+06	1.479058286059920909e+06
1.726780903884356132e-07	2.114081308504363522e+06	1.477668774935118854e+06
1.783410220710008120e-07	2.112424814446107950e+06	1.476233695165480720e+06
1.841896680799711039e-07	2.110713996109286323e+06	1.474751552339514950e+06
1.902301188668944219e-07	2.108947071943747345e+06	1.473220803036906291e+06
1.964686646180446931e-07	2.107122201973877847e+06	1.471639853221283061e+06
2.029118018046678038e-07	2.105274988237635233e+06	1.470062857613128377e+06
2.095662399480432992e-07	2.103402175359866582e+06	1.468486192401286913e+06
2.164389086064020114e-07	2.101467944085837808e+06	1.466857820876496844e+06
2.235369645909794139e-07	2.099470280215707608e+06	1.465176047344087157e+06
2.308677994187169850e-07	2.097407103494492825e+06	1.463439120499533601e+06
2.384390470093720426e-07	2.095276265445803758e+06	1.461645231604749803e+06
2.462585916350547006e-07	2.093075547134545166e+06	1.459792512604569551e+06
2.543345761304648365e-07	2.090841242778809043e+06	1.457931377920461353e+06
2.626754103723835758e-07	2.088596116796215763e+06	1.456093926802259404e+06
2.712897800372467241e-07	2.086277362508899067e+06	1.454196216967222048e+06
2.801866556459195443e-07	2.083882565296343761e+06	1.452236272246884648e+06
2.893753019050950594e-07	2.081409231351203285e+06	1.450212051664867671e+06
2.988652873550382326e-07	2.078854785082385177e+06	1.448121447311518947e+06
3.086664943337274455e-07	2.076216566432979889e+06	1.445962282148853177e+06
3.187891292677645596e-07	2.073526247509072768e+06	1.443775034366966924e+06
3.292437333007768907e-07	2.070852640273103723e+06	1.441646323932530126e+06
3.400411932703706463e-07	2.068091352804574883e+06	1.439447803010062780e+06
3.511927530450727317e-07	2.065239509653763846e+06	1.437177182183324825e+06
3.627100252330649086e-07	2.062294141071347520e+06	1.434832096955284709e+06
3.746050032748993774e-07	2.059252179915868212e+06	1.432410105285863625e+06
3.868900739327976195e-07	2.056110458459787071e+06	1.429908685048934072e+06
3.995780301895269929e-07	2.052887126598441275e+06	1.427349654250389198e+06
4.126820845702951630e-07	2.049726809098082362e+06	1.424899062879578676e+06
4.262158829015325345e-07	2.046462849832520355e+06	1.422368105021719588e+06
4.401935185208874400e-07	2.043091849897849606e+06	1.419754145079413895e+06
4.546295469532399562e-07	2.039610298924023053e+06	1.417054461021553492e+06
4.695390010680058238e-07	2.036014571419347310e+06	1.414266241548749618e+06
4.849374067335232931e-07	2.032300922995102126e+06	1.411386583165803924e+06
5.008407989848212921e-07	2.028465486466342583e+06	1.408412487158171134e+06
5.172657387216018967e-07	2.024754799628085690e+06	1.405604602146425517e+06
