# Frequency (Hz)	Real Part (Ohm/m)
1000.0	7204773.017661678
1018.6101701559753	7205154.2922907565
1037.566678745186	7205542.662505558
1056.875971184804	7205938.26035614
1076.544612842316	7206341.220350036
1096.5792912678098	7206751.679497985
1116.9868184678226	7207169.777360515
1137.7741332214914	7207595.656095413
1158.9483034398106	7208029.46050603
1180.5165285688056	7208471.338090548
1202.4861420374123	7208921.439092097
1224.8646137509306	7209379.916549876
1247.6595526308697	7209846.926351154
1270.8787092020582	7209373.568636194
1294.529978227916	7207980.277589571
1318.6214013947485	7206561.057159498
1343.1611700460153	7205115.424795732
1368.1576279674719	7203642.888967697
1393.6192742241421	7202142.948997334
1419.5547660501015	7200615.094888905
1445.9729217920196	7199058.807155542
1472.8827239075017	7197473.556642651
1500.2933220192183	7195858.804347974
1528.2140360258693	7194214.001238328
1556.654359271062	7192538.58806295
1585.6239617711371	7190800.090453452
1615.1326935030913	7187773.418068619
1645.1905877536624	7184690.418795703
1675.8078645307671	7181550.044381723
1706.994934038408	7178351.227065548
1738.7624002162504	7175092.879214819
1771.1210643450886	7171773.892956161
1804.0819287193829	7168393.139798482
1837.6562003881704	7164949.470249285
1871.8552949655793	7161441.713423817
1906.690840512252	7157868.676646964
1942.1746814890264	7154229.145047718
1978.3188827841643	7150521.88114612
2015.1357338155585	7146349.957597019
2052.6377527092523	7141756.783500485
2090.83769055575	7137078.129652456
2129.748535745521	7132312.405260214
2169.3835183851843	7127457.989926118
2209.756114795903	7122513.233096645
2250.880052095462	7117476.453501194
2292.7693128656488	7112345.938580436
2335.438139906479	7107119.943904014
2378.9010410788933	7101796.69257743
2423.1727942376006	7096374.374637875
2468.2684522556924	7090851.146438823
2514.2033481427966	7085214.209236527
2560.9931002584594	7079262.948343103
2608.6536176225477	7073200.93347181
2657.201105324507	7067026.103472271
2706.652070033241	7060736.3588357605
2757.0233256095826	7054329.5609813295
2808.3319988231724	7047803.531528667
2860.595535175742	7041156.051557451
2913.8317048327885	7034384.860852861
2968.058608665602	7027487.657137099
3023.2946844057765	7020462.095286589
3079.5587129142264	7013305.786534595
3136.8698245668766	7006016.297659041
3195.2475057592137	6998740.103809557
3254.711605531848	6991445.424439469
3315.282342319423	6984014.989845075
3376.9803108250912	6976446.273598546
3439.8264890229248	6968736.702254807
3503.8422452906757	6960883.654476527
3569.0493456752297	6952884.460142859
3635.4699612933177	6944736.399441525
3703.126675869927	6936436.701944095
3772.0424934169973	6927982.545664
3842.240846055061	6919371.056097004
3913.745601980384	6910599.305243872
3986.581073580439	6901717.693358496
4060.7720257003652	6893335.287028865
4136.343684063274	6884796.8826911235
4213.321743847289	6876099.577195792
4291.732378422157	6867240.413365304
4371.602248248502	6858216.378988481
4452.958509942656	6849024.405796417
4535.828825510186	6839661.368419175
4620.241371751313	6830124.0833231695
4706.224849841282	6820409.3077286985
4793.808495089107	6810513.73850739
4883.02208687788	6800434.011059081
4973.895958790063	6790166.698167836
5066.461008921268	6780372.580073858
5160.7487103859075	6770866.913811678
5256.791122018419	6761184.345482911
5354.620899273607	6751321.582910001
5454.271305329837	6741275.272647396
5555.7762223988775	6731041.99884137
5659.170163246243	6720618.282068557
5764.488282925873	6710000.578152949
5871.766390733255	6699185.276960796
5981.040962380944	6688168.70117318
6092.349152400711	6676947.105035615
6205.7288067765	6665516.67308451
6321.218475812449	6654023.927854438
6438.857427240419	6643683.534631193
6558.685659571435	6633150.704930587
6680.743915695614	6622421.857477026
6805.073696735207	6611493.344346778
6931.7172761554075	6600361.44972762
7060.717714137772	6589022.388655449
7192.118872221193	6577472.305727312
7325.9654282152305	6565707.273790565
7462.302891391108	6553723.292607588
7601.17761795533	6541516.287495646
7742.63682681127	6529082.1079414785
7886.728615614156	6516416.526190061
8033.501977124734	6504651.5684925495
8183.006815867389	6493393.223656641
8335.293965098195	6481925.359107663
8490.415204088747	6470244.075648107
8648.423275731726	6458345.401515724
8809.37190447399	6446225.291033111
8973.31581458352	6433879.623232101
9140.310748756232	6421304.200452632
9310.413487069076	6408494.746915448
9483.681866285928	6395446.907268334
9660.174799522645	6382156.245105219
9839.952296278227	6368618.241457768
10023.075482838643	6355097.308986307
10209.606623060476	6343225.321671824
10399.609139541202	6331132.394653327
10593.147635183701	6318814.416205334
10790.287915161836	6306267.198082442
10991.097009294961	6293486.474095305
11195.643194838794	6280467.898660049
11403.996019700331	6267207.045320756
11616.226326085018	6253699.405244401
11832.40627458378	6239940.3856878225
12052.609368708414	6225925.308436117
12276.910479883603	6211649.408212005
12505.385872903913	6197107.831055595
12738.113231864785	6183845.257787906
12975.171686575868	6171225.18285789
13216.641839466038	6158370.246186042
13462.60579298911	6145276.076955384
13713.147177539457	6131938.223007294
13968.351179887397	6118352.149327717
14228.30457214352	6104513.23650521
14493.095741262152	6090416.779160304
14762.81471909391	6076057.9843456065
15037.553212997384	6061431.96991618
15317.404637020798	6046533.762869516
15602.46414366368	6031358.297654694
15892.828656229764	6016297.848305549
16188.596901781992	6003230.127265461
16489.86944471065	5989919.213713267
16796.74872092653	5976360.5817949325
17109.339072690134	5962549.621429513
17427.746784089173	5948481.636741683
17752.08011717636	5934151.844465055
18082.44934877952	5919555.372315859
18418.96680799711	5904687.257336293
18761.746914391195	5889542.4442070555
19110.90621689136	5874115.783528508
19466.563433422634	5858402.030069787
19828.839491270715	5842395.840985415
20197.857568198782	5827985.013332585
20573.743134329117	5814279.406272541
20956.623994804308	5800318.735533015
21346.630333242454	5786098.254335535
21743.8947560008	5771613.127563272
22148.552337263594	5756858.430117044
22560.74066496859	5741829.145240745
22980.599887588487	5726520.1628155755
23408.272761782944	5710926.277622555
23843.904700937204	5695042.187572703
24287.643824604504	5678862.491904251
24739.641008868115	5662381.689346333
25200.049937640895	5646120.869400082
25669.02715491952	5632063.435191838
26146.73211801092	5617744.389741024
26633.327251749808	5603158.8644179
27128.978003724646	5588301.899986696
27633.85290053167	5573168.444919426
28148.123605075813	5557753.353678305
28671.9649749377	5542051.384966224
29205.555121827452	5526057.199944617
29749.075472144435	5509765.360418256
30302.71082866393	5493170.326986164
30866.649433372746	5476266.457158145
31441.083031472648	5459048.003436337
32026.206936576502	5443686.407778092
32622.220097116733	5429037.77168753
33229.325163989684	5414116.521986772
33847.72855945983	5398917.5852901405
34477.64054734464	5383435.793795397
35119.275304507275	5367665.883526614
35772.850993678774	5351602.4925443875
36438.58983763541	5335240.159122699
37116.71819475767	5318573.31989188
37807.46663599349	5301596.30794702
38511.07002325569	5284303.350921119
39227.76758927724	5266688.56902247
39957.803018952654	5249402.341072863
40701.42453219439	5234444.226784672
41458.88496832911	5219207.739444366
42230.44187206672	5203687.698482081
43016.357581068	5187878.8269166555
43816.89931514195	5171775.749561423
44632.33926710398	5155372.991196577
45462.95469532399	5138664.974707535
46309.02801799737	5121646.019188663
47170.84690917022	5104310.338011708
48048.70439655134	5086652.036858277
48942.898961145314	5068665.111715716
49853.73463873893	5050343.446835673
50781.5211232767	5034119.888052842
51726.57387216025	5018587.704354319
52689.21421350677	5002766.464074279
53669.76945540476	4986650.78782055
54668.57299720181	4970235.196089557
55685.96444286409	4953514.107403244
56722.28971644549	4936481.83641128
57777.90117970507	4919132.5919580115
58853.15775191451	4901460.475113399
59948.42503189409	4883459.477167284
61064.07542232036	4865123.477586417
62200.48825634718	4846446.24193337
63358.04992658254	4828217.383112853
64537.15401646702	4812416.348327938
65738.20143409586	4796321.253597038
66961.60054853215	4779926.626414516
68207.76732865692	4763226.892430483
69477.1254846024	4746216.373555448
70770.10661181889	4728889.28602971
72087.15033782135	4711239.738456808
73428.70447166757	4693261.729800401
74795.2251562183	4674949.14734383
76187.17702322999	4656295.764611748
77605.0333513357	4637295.239253037
79049.2762269642	4617941.110884346
80520.3967082547	4600951.661511507
82018.89499202212	4584624.878546306
83545.28058382872	4567994.251372027
85100.07247122246	4551054.125396237
86683.79930019774	4533798.740793568
88296.99955494083	4516222.230547342
89940.22174092053	4498318.618454681
91614.0245713852	4480081.817094574
93318.97715733238	4461505.625758049
95055.6592010119	4442583.728339906
96824.66119303113	4423309.691191135
98626.5846131283	4403676.960931432
100462.04213468131	4384636.223974907
102331.6578330245	4368139.843260235
104236.06739764012	4351336.462093508
106175.9183482999	4334220.367144071
108151.87025522892	4316785.738755214
110164.59496336569	4299026.64896544
112214.77682079803	4280937.059492864
114303.11291144787	4262510.819682148
116430.31329208757	4243741.664413222
118597.10123376705	4224623.211971055
120804.21346773289	4205148.961875821
123052.40043592616	4185312.2926726574
125342.42654613995	4165106.459680294
127675.07043192645	4147581.14726211
130051.12521734099	4130690.5378179154
132471.39878661174	4113485.591257932
134936.71405883064	4095960.457714938
137447.90926775365	4078109.178454705
140005.8382468096	4059925.6838499364
142611.37071941298	4041403.791316543
145265.39259467812	4022537.2032114924
147968.80626863963	4003319.504691544
150722.53093107554	3983744.1615321347
153527.5028780421	3963804.517905666
156384.6758302248	3943493.794118458
159295.0212572123	3923947.1584045803
162259.5287078087	3907075.5849280367
165279.2061464897	3889890.028598292
168355.08029612005	3872384.646141033
171488.19698705408	3854553.4855375923
174679.62151272458	3836390.4840012467
177930.43899185772	3817889.4659157633
181241.75473742394	3799044.140735651
184614.69463245457	3779848.100847297
188050.40551285836	3760294.8193902923
191550.05555735278	3740377.648038268
195114.83468466165	3720089.8147383593
198745.9549580986	3699424.4214086393
202444.65099768018	3681782.8571406854
206212.18039991445	3664741.2219548305
210049.82416539153	3647382.439038431
213958.88713434216	3629700.6062182575
217940.6984302958	3611689.7114806296
221996.61191199525	3593343.630927278
226128.00663372796	3574656.126693129
230336.28731421314	3555620.8448253903
234622.88481422624	3536231.3131231302
238989.25662310526	3516480.93893664
243436.8873543108	3496363.0069259037
247967.289250216	3475870.676777255
252582.00269627848	3456330.2925974005
257282.5967447932	3439566.1517660418
262070.66964838552	3422490.0274212877
266947.8494034318	3405096.113496878
271915.7943036019	3387378.4958746526
276976.1935036891	3369331.1503737215
282130.76759394706	3350947.9407021557
287381.2691851069	3332222.616370584
292729.4835042813	3313148.810566983
298177.22900196735	3293720.0379918492
303726.35797033116	3273929.692653173
309378.7571730137	3253771.045620298
315136.34848664823	3233237.242736027
321001.08955431683	3216035.5501292604
326974.9744511768	3199378.796477777
333060.03436245886	3182412.057806594
339258.33827409917	3165129.5652417494
345571.9936762143	3147525.4425495523
352003.14727966755	3129593.7041386086
358553.9857459817	3111328.253024643
365226.7364308176	3092722.878757471
372023.6681413066	3073771.255309372
378947.09190746717	3054466.938924171
385999.3617679763	3034803.3659263
393182.87557057705	3014773.850489059
400500.07578736113	2995872.005648524
407953.4503452449	2979763.5379061634
415545.53347188793	2963355.288838163
423278.90655735444	2946641.6794630517
431156.19903182285	2929617.0269735423
439180.0892596086	2912275.5428043604
447353.3054498463	2894611.3306640335
455678.6265841069	2876618.3845300996
464158.8833612772	2858290.5866070134
472796.9591600391	2839621.705245988
481595.7910192351	2820605.3928262154
490558.37063650455	2801235.183596571
499687.7453854889	2781504.491477201
508987.01935196744	2765308.182715704
518459.3543892913	2749574.4844895783
528107.971193433	2733547.979462282
537936.1503980698	2717223.218449423
547947.2336900292	2700594.6508563557
558144.6249454955	2683656.6227909354
568531.7913873753	2666403.375141106
579112.2647641759	2648829.0416167756
589889.6425508494	2630927.646755176
600867.5891719693	2612693.1038891724
612049.837247669	2594119.21307772
623440.1888627864	2575199.658997805
635042.5168595962	2557541.128659708
646860.7661546321	2542577.5240157354
658898.9550799957	2527335.444143189
671161.1767496273	2511809.7065706877
683651.6004510239	2495995.032380161
696374.4730628222	2479886.0444119894
709334.1204987989	2463477.26543669
722534.9491787221	2446763.1162926066
735981.4475265756	2429737.913988942
749678.1874966876	2412395.8697734633
763629.8261282241	2394731.0871642856
777841.1071286482	2376737.5599449817
792316.8624866261	2358409.1701224167
807062.014114949	2343667.3705675784
822081.5755240541	2329283.1694062655
837380.653526649	2314631.2758137854
852964.4499741016	2299706.707988443
868838.2635251193	2284504.3914163616
885007.4914473438	2269019.1571461125
901477.6314524917	2253245.7400311898
918254.2835656282	2237178.7769398154
935343.1520292377	2220812.8049314204
952750.04724273	2204142.259399181
970480.8877380306	2187161.4721779954
988541.7021919574	2169864.6696172403
1006938.6314760271	2153900.7778722695
1025677.9307444209	2140423.3625697633
1044765.9715608052	2126695.130275213
1064209.2440647245	2112711.413241721
1084014.359178331	2098467.456854823
1104188.0508541602	2083958.418015871
1124737.1783647507	2069179.3634953268
1145668.7286348727	2054125.2682554084
1166989.8186171474	2038791.0137415328
1188707.6977119034	2023171.3861419389
1210829.7502320395	2007261.0746149442
1233363.4979137748	1991054.669483196
1256316.6024741214	1974546.6603943293
1279696.8682159416	1961525.1115494794
1303512.244681509	1948746.5664898267
1327770.8293554292	1935730.2105322678
1352480.870417874	1922471.6179755295
1377650.769549055	1908966.2807552787
1403289.084785873	1895209.6069113465
1429404.533431761	1881196.919026399
1456005.9950206485	1866923.452635571
1483102.5143361029	1852384.3546064927
1510703.3044866556	1837574.6814891775
1538817.7500383463	1822489.3978351962
1567455.410205595	1807123.374485563
1596626.022101425	1793097.9163016074
1626339.5040481905	1781273.8401192925
1656605.9589499151	1769229.715867286
1687435.6777273756	1756961.4484135709
1718839.1428171457	1744464.8664150229
1750827.0317357269	1731735.7208991137
1783410.2207100063	1718769.683819216
1816599.7883753285	1705562.3465830078
1850407.019542302	1692109.21855353
1884843.4090337954	1678405.7255222923
1919920.6655932867	1664447.2081540124
1955650.715865947	1650228.9204023855
1992045.7084538713	1635746.0278963698
2029118.018046678	1624527.513471849
2066880.2496290822	1613442.2224790296
2105345.242766708	1602150.6323346046
2144526.0759716653	1590648.9037762627
2184436.0711494284	1578933.1260923594
2225088.7981283693	1566999.315792251
2266498.079273693	1554843.4152518476
2308677.994187172	1542461.2913339876
2351642.884494346	1529848.733983126
2395407.3587208795	1517001.4547938602
2439986.29725955	1503915.0855528424
2485394.8574297987	1490585.176753525
2531648.478631358	1478549.1681953287
2578762.8875937983	1468394.6919869168
2626754.1037238385	1458051.239248419
2675638.4445520453	1447515.2930944585
2725432.531281028	1436783.2711898189
2776153.294436804	1425851.5245314143
2827817.979625338	1414716.336207598
2880444.1533962977	1403373.9201343535
2934049.7092157872	1391820.4197680075
2988652.8735503824	1380051.9067939476
3044272.212064306	1368064.3797909548
3100926.6359319235	1355853.76287069
3158635.408267819	1343415.904291827
3217418.1506763715	1333942.0842191332
3277294.849923382	1324506.9591728796
3338285.8647317644	1314896.244844072
3400411.9327037027	1305106.6734862868
3463694.1773717343	1295134.9165397775
3528154.115380883	1284977.5834997394
3593813.6638046256	1274631.2207634968
3660695.147596906	1264092.3104562347
3728821.30718283	1253357.2692348987
3798215.306190736	1242422.447069801
3868900.7393279755	1231284.1260035841
3940901.6404034477	1219938.5188870756
4014242.490499326	1209801.4044544846
4088948.226294856	1201226.821549306
4165044.248545185	1192492.664197243
4242556.430717777	1183595.9626906917
4321511.127789762	1174533.6920552752
4401935.185208879	1165302.7710213342
4483855.948021182	1155900.0609762555
4567301.270168747	1146322.3648973096
4652299.523960189	1136566.4262646332
4738879.609717651	1126628.9279539718
4827070.965603188	1116506.4911088226
4916903.577628021	1106195.673991595
5008407.989848212	1095692.9708133657
5101615.314749834	1087817.063471918
5196557.243827658	1079905.5591819691
5293266.058360566	1071846.8204509933
5391774.640387494	1063638.107220994
5492116.483887789	1055276.628441021
5594325.706169377	1046759.541118198
5698437.059469136	1038083.9493510638
5804485.942768984	1029246.9033449385
5912508.413831869	1020245.3984089651
6022541.201461928	1011076.373934471
6134621.717992506	1001736.7123543435
6248788.072006888	992223.2380830108
6365079.081295578	983809.7218155429
6483534.286054714	976664.1292560524
6604193.962330305	969385.5560031637
6727099.135712337	961971.5272635465
6852291.595284058	954419.5221875432
6979813.907830667	946726.9730120563
7109709.432312424	938891.2641874821
7242022.334607315	930909.731488388
7376797.602527731	922779.6611076592
7514081.061116962	914498.2887337653
7653919.388230155	906062.798610867
7796360.130405221	897470.3225814346
7941451.71902934	888717.939111031
8089243.486805938	882249.8925654008
8239785.684528511	875692.7385798589
8393129.498166373	869013.5548429064
8549327.066268368	862210.070360108
8708431.497690724	855279.9718734288
8870496.889654404	848220.903074716
9035578.34613892	841030.4638045166
9203731.99661823	833706.2092360021
9375015.015145289	826245.6490437019
9549485.639791965	818646.2465567645
9727203.192450536	810905.4178964614
9908228.099003788	803020.5310976421
10092621.909870485	796116.7660112702
10280447.320933098	790222.8279414728
10471768.194855202	784219.2026813073
10666649.582795387	778103.8489334977
10865157.746525373	771874.6874118774
11067360.180959744	765529.60013441
11273325.63710487	759066.4297030548
11483124.145435112	752482.9785702258
11696827.039703846	745777.0082916007
11914506.981197748	738946.2387650292
12136237.983442418	731988.3474552713
12362095.43736769	724900.9686043133
12592156.13694151	717707.2816321652
12826498.3052806	712420.0054937837
13065201.621247198	707034.3322468047
13308347.24654076	701548.4307042947
13556017.853293689	695960.4356006203
13808297.652180923	690268.4469572362
14065272.421052365	684470.529436672
14327029.534098294	678564.7116844999
14593657.991557576	672548.9856590496
14865248.449978571	666421.3059486541
15141893.25304352	660179.5890761869
15423686.462966274	653821.7127906578
15710723.89247449	647345.5153456243
16003103.137387017	641730.6162824471
16300923.60979741	636907.7645019562
16604286.571875297	631995.1586291939
16913295.17029647	626991.1283252295
17228054.471313924	621893.9721658427
17548671.49648152	616701.9570630183
17875255.259042356	611413.317675678
18207916.800994623	606026.255809446
18546769.230846975	600538.9398052421
18891927.762076642	594949.5039165007
19243509.75230332	589256.0476747936
19601634.743191857	583456.6352436532
19966424.501097932	577612.6275319336
20338003.0584698	573300.474411603
20716496.75602067	568908.0713879648
21102034.285685964	564433.9249966625
21494746.734379806	559876.5139797158
21894767.628566206	555234.2887682728
22302232.979659364	550505.6709557427
22717281.330269028	545689.0527611187
23140053.801306542	540782.796482316
