# Frequency (Hz)	Imaginary Part (Ohm/m)
1000.0	22100490.30127454
1018.6101701559753	22029637.55249904
1037.566678745186	21957466.222012814
1056.875971184804	21883951.770785853
1076.5446128423157	21809069.20311264
1096.5792912678098	21732793.05811331
1116.9868184678226	21655097.401076697
1137.7741332214914	21575955.814642254
1158.9483034398106	21495341.38981786
1180.5165285688054	21413226.71683044
1202.4861420374123	21329583.875806443
1224.8646137509306	21244384.427278653
1247.6595526308697	21157599.402516555
1270.8787092020582	21076995.944072988
1294.529978227916	21002377.454000607
1318.6214013947485	20926370.3011312
1343.1611700460153	20848948.642213825
1368.1576279674719	20770086.153050236
1393.619274224142	20689756.019544393
1419.5547660501015	20607930.928585347
1445.9729217920194	20524583.058760528
1472.882723907502	20439684.070896134
1500.2933220192183	20353205.098421507
1528.2140360258693	20265116.737554226
1556.654359271062	20175389.037302434
1585.6239617711371	20084403.708020784
1615.132693503091	20007950.72333007
1645.1905877536624	19930074.935585324
1675.807864530767	19850749.86617962
1706.9949340384078	19769948.543734647
1738.7624002162504	19687643.494930137
1771.1210643450886	19603806.735162675
1804.0819287193826	19518409.75903063
1837.6562003881704	19431423.530641954
1871.8552949655793	19342818.47374174
1906.690840512252	19252564.461655933
1942.1746814890264	19160630.80704794
1978.3188827841643	19066986.25148464
2015.1357338155585	18981197.10379581
2052.6377527092523	18902146.759724233
2090.8376905557498	18821625.275298595
2129.748535745521	18739605.27234658
2169.3835183851843	18656058.863183435
2209.756114795903	18570957.64112984
2250.880052095462	18484272.670853358
2292.7693128656488	18395974.47853006
2335.438139906479	18306033.041823152
2378.9010410788933	18214417.77967506
2423.1727942376006	18121097.54190951
2468.2684522556924	18026040.59864014
2514.2033481427966	17930162.844377108
2560.9931002584594	17850683.959558997
2608.6536176225477	17769725.959170617
2657.2011053245064	17687261.316619515
2706.652070033241	17603261.993038695
2757.0233256095826	17517699.42775305
2808.3319988231724	17430544.52856845
2860.5955351757416	17341767.6618801
2913.831704832789	17251338.64259676
2968.0586086656026	17159226.723877527
3023.2946844057765	17065400.586677536
3079.5587129142264	16969828.32909917
3136.8698245668766	16872477.455545083
3195.2475057592133	16784626.760527506
3254.711605531848	16704020.763801178
3315.282342319423	16621914.675760174
3376.9803108250912	16538280.579449886
3439.8264890229243	16453090.038376426
3503.8422452906757	16366314.086837905
3569.0493456752292	16277923.220075814
3635.4699612933177	16187887.384243034
3703.126675869927	16096175.966185275
3772.0424934169973	16002757.78303222
3842.240846055061	15907601.071595017
3913.745601980384	15810673.477566494
3986.581073580439	15713509.15333092
4060.7720257003657	15634043.528437309
4136.343684063274	15553099.034742884
4213.321743847289	15470648.150247607
4291.732378422157	15386662.840762373
4371.602248248501	15301114.550377017
4452.958509942655	15213974.19175103
4535.828825510186	15125212.136223562
4620.241371751313	15034798.203739332
4706.224849841281	14942701.652587105
4793.808495089106	14848891.168947157
4883.02208687788	14753334.85624425
4973.895958790063	14656000.224302467
5066.461008921268	14569579.371772628
5160.7487103859075	14490567.6569223
5256.791122018419	14410085.520614281
5354.620899273607	14328105.598055054
5454.271305329836	14244600.015187627
5555.7762223988775	14159540.379214067
5659.170163246242	14072897.768941633
5764.488282925873	13984642.72494927
5871.766390733255	13894745.239571085
5981.040962380945	13803174.746693414
6092.349152400711	13709900.11136203
6205.7288067765	13614889.619195892
6321.218475812449	13520309.414168442
6438.8574272404185	13443938.571729109
6558.685659571435	13366146.45491702
6680.743915695614	13286906.613574274
6805.073696735206	13206192.105301006
6931.717276155407	13123975.486294713
7060.717714137772	13040228.802019067
7192.118872221193	12954923.577699045
7325.96542821523	12868030.808639245
7462.302891391108	12779520.950361911
7601.17761795533	12689363.908561554
7742.636826811269	12597529.028872535
7886.728615614156	12503985.086446248
8033.501977124735	12422329.250921454
8183.00681586739	12347856.034918703
8335.293965098195	12271996.859694073
8490.415204088747	12194725.932310624
8648.423275731726	12116016.979820458
8809.37190447399	12035843.240331654
8973.31581458352	11954177.453908918
9140.310748756232	11870991.853304934
9310.413487069076	11786258.154519187
9483.681866285926	11699947.547181085
9660.174799522645	11612030.684754165
9839.952296278227	11522477.674557893
10023.075482838643	11434014.027251597
10209.606623060476	11363374.664396862
10399.609139541202	11291420.690979697
10593.1476351837	11218127.641873844
10790.287915161836	11143470.596652878
10991.097009294961	11067424.171117006
11195.643194838794	10989962.508662155
11403.99601970033	10911059.271488458
11616.22632608502	10830687.631645098
11832.40627458378	10748820.261908544
12052.609368708414	10665429.32649097
12276.910479883603	10580486.471575797
12505.385872903913	10493962.81567713
12738.113231864783	10419719.362798955
12975.171686575868	10352065.82591069
13216.641839466038	10283153.245189276
13462.60579298911	10212958.189614741
13713.147177539455	10141456.79211187
13968.351179887397	10068624.741435073
14228.30457214352	9994437.273902375
14493.09574126215	9918869.164975453
14762.81471909391	9841894.720683027
15037.553212997384	9763487.768884664
15317.404637020798	9683621.650371924
15602.46414366368	9602269.209803967
15892.828656229764	9522566.662031181
16188.596901781993	9459475.690303655
16489.86944471065	9395210.58485698
16796.74872092653	9329749.494862854
17109.339072690134	9263070.162845338
17427.746784089173	9195149.917113092
17752.08011717636	9125965.664050724
18082.44934877952	9055493.880266758
18418.96680799711	8983710.604595378
18761.746914391195	8910591.429949401
19110.90621689136	8836111.495021597
19466.56343342263	8760245.475831576
19828.83949127071	8682967.577115377
20197.857568198782	8617756.522788133
20573.743134329114	8558275.471746441
20956.623994804308	8497687.46822381
21346.630333242454	8435971.911646204
21743.8947560008	8373107.818059426
22148.55233726359	8309073.812994296
22560.74066496859	8243848.124199135
22980.599887588487	8177408.5742369555
23408.272761782944	8109732.572944886
23843.904700937208	8040797.109753301
24287.643824604504	7970578.745861942
24739.64100886812	7899053.60627049
25200.049937640895	7829578.894656469
25669.027154919517	7774900.509809997
26146.732118010917	7719204.550917682
26633.327251749808	7662472.08075338
27128.978003724646	7604683.809665956
27633.852900531667	7545820.089020572
28148.123605075813	7485860.904517959
28671.964974937695	7424785.869389344
29205.55512182745	7362574.217464702
29749.075472144435	7299204.796112053
30302.71082866393	7234656.059045361
30866.649433372742	7168906.058998487
31441.08303147265	7101932.440262993
32026.206936576502	7046303.981389519
32622.220097116733	6995416.680141546
33229.325163989684	6943582.35755858
33847.72855945983	6890783.389412414
34477.640547344636	6837001.823484996
35119.275304507275	6782219.373464413
35772.850993678774	6726417.412727377
36438.58983763541	6669576.968006003
37116.71819475767	6611678.712936609
37807.466635993485	6552702.961488646
38511.070023255685	6492629.661271162
39227.76758927723	6431438.386714791
39957.803018952654	6372519.52490873
40701.42453219439	6326275.446953357
41458.88496832911	6279170.758838534
42230.441872066716	6231189.44446275
43016.35758106799	6182315.18966212
43816.89931514194	6132531.376663409
44632.33926710397	6081821.078433778
45462.95469532399	6030167.052925434
46309.02801799736	5977551.73721314
47170.84690917023	5923957.241522621
48048.704396551344	5869365.343147888
48942.89896114532	5813757.480255259
49853.73463873894	5757114.745572192
50781.5211232767	5710754.614994729
51726.57387216024	5668148.529276348
52689.21421350677	5624749.537053069
53669.76945540476	5580542.88219992
54668.57299720181	5535513.533977926
55685.96444286408	5489646.18192351
56722.28971644549	5442925.230642748
57777.90117970507	5395334.79450881
58853.1577519145	5346858.692260622
59948.42503189408	5297480.441501098
61064.07542232036	5247183.253092933
62200.48825634718	5195950.02545012
63358.04992658254	5147050.667430415
64537.15401646702	5108669.267461805
65738.20143409586	5069573.583108954
66961.60054853215	5029750.3214179315
68207.76732865692	4989185.942050672
69477.1254846024	4947866.652681118
70770.10661181889	4905778.404305672
72087.15033782135	4862906.886466394
73428.70447166759	4819237.5223852815
74795.22515621828	4774755.464008011
76187.17702322999	4729445.586955457
77605.0333513357	4683292.48538121
79049.2762269642	4636280.466733436
80520.39670825469	4598322.537004102
82018.8949920221	4563224.960608308
83545.28058382872	4527474.212343729
85100.07247122246	4491058.136570744
86683.79930019773	4453964.35143121
88296.99955494082	4416180.2446385
89940.22174092053	4377692.969189182
91614.0245713852	4338489.438994917
93318.9771573324	4298556.32443302
95055.65920101192	4257880.0478142705
96824.66119303115	4216446.778766334
98626.5846131283	4174242.4295312916
100462.04213468132	4134310.5230045193
102331.65783302448	4102894.128777642
104236.06739764012	4070893.0701085143
106175.9183482999	4038296.4662923827
108151.87025522892	4005093.234132722
110164.59496336569	3971272.084172846
112214.77682079801	3936821.5168573465
114303.11291144785	3901729.818622134
116430.31329208757	3865985.057911702
118597.10123376705	3829575.0811222624
120804.21346773289	3792487.5084693986
123052.40043592616	3754709.7297787922
125342.42654613995	3716228.9001986412
127675.07043192645	3685548.1588375936
130051.12521734099	3656973.585488902
132471.39878661174	3627867.2344680596
134936.71405883064	3598219.2093021004
137447.90926775365	3568019.429343014
140005.8382468096	3537257.626340216
142611.37071941295	3505923.3409492276
145265.39259467812	3474005.9191754004
147968.80626863963	3441494.508751423
150722.53093107554	3408378.055447444
153527.5028780421	3374645.2993125156
156384.67583022476	3340284.770846082
159295.0212572123	3308053.787458287
162259.5287078087	3282590.7305458873
165279.2061464897	3256653.8018116537
168355.08029612005	3230234.1824203585
171488.19698705408	3203322.889416729
174679.62151272455	3175910.7726711873
177930.43899185772	3147988.511768677
181241.75473742394	3119546.612839627
184614.69463245454	3090575.4053319544
188050.40551285836	3061065.0387229337
191550.0555573528	3031005.4791699573
195114.83468466165	3000386.5060988865
198745.9549580986	2969197.708728959
202444.65099768018	2944622.156875461
206212.18039991445	2921548.3618038986
210049.8241653915	2898045.159479914
213958.88713434213	2874104.558561469
217940.6984302958	2849718.418986293
221996.61191199525	2824878.4492041813
226128.00663372793	2799576.20335775
230336.2873142131	2773803.0784107903
234622.88481422624	2747550.311223117
238989.25662310526	2720808.9755710126
243436.8873543108	2693569.9791122302
247967.289250216	2665824.060294467
252582.00269627848	2640019.069921408
257282.59674479323	2619520.6468095607
262070.66964838552	2598640.7445556712
266947.8494034318	2577372.2637680015
271915.7943036019	2555707.972933909
276976.1935036891	2533640.505961088
282130.76759394706	2511162.359672992
287381.2691851069	2488265.89125768
292729.4835042813	2464943.315669194
298177.22900196735	2441186.702980525
303726.3579703311	2416987.975687393
309378.75717301364	2392338.905961778
315136.34848664823	2367231.1128543797
321001.08955431683	2347666.7517347047
326974.97445117676	2329138.212366104
333060.03436245886	2310264.8537271153
339258.33827409917	2291040.25867244
345571.9936762143	2271457.8906326154
352003.1472796675	2251511.0913915164
358553.9857459817	2231193.07882247
365226.7364308175	2210496.944582284
372023.6681413066	2189415.651762317
378947.09190746717	2167942.032495861
385999.36176797637	2146068.785520995
393182.87557057705	2123788.4736980596
400500.07578736113	2103241.458221752
407953.45034524484	2086814.5018034128
415545.53347188793	2070081.8369309814
423278.90655735444	2053037.774318115
431156.19903182285	2035676.5187998707
439180.0892596086	2017992.1673623119
447353.3054498463	1999978.707135402
455678.6265841068	1981630.01334857
464158.8833612772	1962939.8472482283
472796.9591600391	1943901.853976512
481595.79101923504	1924509.5604105836
490558.37063650455	1904756.3729616778
499687.7453854889	1884635.575333223
508987.0193519675	1869124.4130148222
518459.3543892913	1854300.5950053802
528107.971193433	1839200.9032204216
537936.1503980698	1823820.203602042
547947.2336900292	1808153.2665466457
558144.6249454955	1792194.7651268286
568531.7913873753	1775939.2732801514
579112.2647641759	1759381.2639642388
589889.6425508494	1742515.1072775142
600867.5891719692	1725335.0685449701
612049.837247669	1707835.3063683307
623440.1888627863	1690009.8706398911
635042.5168595961	1673708.9890384811
646860.7661546321	1660584.0827886888
658898.9550799957	1647214.9198003048
671161.1767496272	1633596.9544138673
683651.6004510238	1619725.5563744074
696374.4730628222	1605596.0092571327
709334.1204987989	1591203.508863779
722534.9491787221	1576543.1615891333
735981.4475265755	1561609.982757164
749678.1874966878	1546398.894926159
763629.8261282243	1530904.7261623626
777841.1071286482	1515122.208281447
792316.8624866261	1499045.9750572762
807062.0141149492	1486781.4963215601
822081.575524054	1474950.2035884066
837380.6535266489	1462898.7284843244
852964.4499741016	1450622.9733779249
868838.2635251193	1438118.7643802008
885007.4914473438	1425381.8499253644
901477.6314524917	1412407.8993252618
918254.2835656281	1399192.5012968958
935343.1520292377	1385731.162462543
952750.0472427299	1372019.3058219543
970480.8877380306	1358052.269196131
988541.7021919573	1343825.3036421267
1006938.6314760271	1330923.9358184347
1025677.9307444209	1320457.6378771774
1044765.9715608053	1309796.560350329
1064209.2440647245	1298937.0783566611
1084014.359178331	1287875.499555285
1104188.0508541602	1276608.0628902218
1124737.1783647507	1265130.9373116004
1145668.7286348727	1253440.2204730583
1166989.8186171474	1241531.937404906
1188707.6977119034	1229402.0391625906
1210829.7502320393	1217046.4014500105
1233363.4979137746	1204460.8232172139
1256316.6024741214	1191641.025231992
1279696.8682159416	1181960.8118505417
1303512.2446815087	1172532.627080764
1327770.829355429	1162928.9821881582
1352480.8704178738	1153146.6118299842
1377650.769549055	1143182.1898949142
1403289.084785873	1133032.3283721278
1429404.533431761	1122693.5761993425
1456005.9950206485	1112162.4180894217
1483102.514336103	1101435.2733351358
1510703.3044866556	1090508.4945916831
1538817.7500383465	1079378.3666365594
1567455.410205595	1068041.1051063333
1596626.022101425	1057846.1989271266
1626339.5040481905	1049510.3868630417
1656605.9589499151	1041019.4439180545
1687435.6777273756	1032370.4830800778
1718839.1428171454	1023560.5636092338
1750827.0317357269	1014586.690037976
1783410.220710006	1005445.8111526007
1816599.7883753285	996134.8189557915
1850407.019542302	986650.5476098796
1884843.4090337954	976989.7723604151
1919920.6655932867	967149.208439718
1955650.715865947	957125.5099500287
1992045.7084538713	946915.2687258517
2029118.0180466783	939283.6699813147
2066880.2496290822	931777.9889368984
2105345.242766708	924132.6258911084
2144526.0759716653	916344.9813381338
2184436.0711494284	908412.4073949122
2225088.7981283693	900332.2069008332
2266498.079273693	892101.6325006649
2308677.994187172	883717.8857104274
2351642.884494346	875178.1159658809
2395407.358720879	866479.4196532932
2439986.29725955	857618.8391221944
2485394.857429798	848593.3616797314
2531648.478631358	840545.361483564
2578762.8875937983	833911.6604112142
2626754.1037238385	827154.5050331423
2675638.4445520453	820271.5978437149
2725432.531281028	813260.5985803247
2776153.2944368036	806119.1234276784
2827817.979625338	798844.7442072784
2880444.1533962977	791434.9875518059
2934049.709215787	783887.3340641615
2988652.873550383	776199.2174608338
3044272.2120643063	768368.0236993382
3100926.6359319235	760391.0900894186
3158635.408267819	752265.7043876937
3217418.1506763715	746253.8227734286
3277294.849923382	740282.4368001196
3338285.8647317644	734199.9223177796
3400411.9327037027	728004.2112059485
3463694.1773717343	721693.1968560874
3528154.1153808828	715264.7334553193
3593813.6638046256	708716.6352568218
3660695.147596906	702046.6758366511
3728821.30718283	695252.5873367391
3798215.306190736	688332.0596937875
3868900.7393279755	681282.7398538322
3940901.6404034477	674102.2309721715
4014242.490499326	667753.2975916708
4088948.226294856	662476.8342455988
4165044.248545185	657102.1750188335
4242556.430717777	651627.492469328
4321511.127789762	646050.9251460264
4401935.1852088785	640370.5769559514
4483855.948021181	634584.5165195151
4567301.270168747	628690.7765138227
4652299.523960189	622687.3530037698
4738879.609717651	616572.2047606765
4827070.965603188	610343.2525682496
4916903.577628021	603998.3785156297
5008407.989848212	597535.4252772707
5101615.314749833	592801.9771632772
5196557.243827657	588053.174843467
5293266.058360566	583215.9965044472
5391774.640387494	578288.7974534648
5492116.483887789	573269.90238975
5594325.706169377	568157.6048349054
5698437.0594691355	562950.1665526769
5804485.942768984	557645.8169579388
5912508.413831869	552242.752514677
6022541.201461928	546739.1361227611
6134621.717992506	541133.0964933193
6248788.072006888	535422.7275124723
6365079.081295578	530416.4157942692
6483534.286054714	526220.8576184089
6604193.962330305	521947.2193909956
6727099.135712336	517594.04802898556
6852291.595284057	513159.8634072104
6979813.907830667	508643.1578551204
7109709.432312423	504042.39564416267
7242022.334607315	499356.01246561075
7376797.60252773	494582.4148986904
7514081.061116962	489719.97986879345
7653919.388230155	484767.05409561744
7796360.130405221	479721.9535310337
7941451.71902934	474582.9627864878
8089243.486805938	470857.4537800873
8239785.684528512	467081.89188888116
8393129.498166373	463236.06614844495
8549327.066268368	459318.6689365897
8708431.497690724	455328.3682960525
8870496.889654402	451263.80748162186
9035578.34613892	447123.60449882527
9203731.99661823	442906.3516340382
9375015.01514529	438610.614975847
9549485.639791967	434234.9339275016
9727203.192450536	429777.8207102984
9908228.099003786	425237.7598577185
10092621.909870483	421291.36392559094
10280447.320933098	417955.96233158105
10471768.194855202	414558.4883463681
10666649.582795387	411097.78679219
10865157.746525371	407572.6809932295
11067360.180959744	403981.9723755321
11273325.63710487	400324.4400594792
11483124.14543511	396598.8404446736
11696827.039703846	392803.9067871034
11914506.981197748	388938.34876843524
12136237.983442418	385000.8520572914
12362095.437367693	380990.077862365
12592156.13694151	376919.70852562605
12826498.3052806	373973.2451966878
13065201.621247198	370971.9476838398
13308347.24654076	367914.7955135885
13556017.853293689	364800.7492212566
13808297.652180923	361628.7499975508
14065272.421052363	358397.719328557
14327029.534098294	355106.5586290344
14593657.991557576	351754.1488688824
14865248.449978571	348339.350192662
15141893.25304352	344861.00153202855
15423686.462966273	341317.92021095887
15710723.892474487	337708.9015436278
16003103.137387017	334598.7043833188
16300923.609797413	331947.4509241436
16604286.571875297	329246.85718696675
16913295.17029647	326496.00494081876
17228054.471313924	323693.95886629605
17548671.49648152	320839.7662375413
17875255.259042352	317932.4565983077
18207916.800994623	314971.041431992
18546769.230846975	311954.5138255286
18891927.762076646	308881.8481270288
19243509.75230332	305751.999597047
19601634.743191857	302563.9040533602
19966424.501097932	299352.3525078086
20338003.0584698	297010.3623228343
20716496.75602067	294624.78730201407
21102034.285685964	292194.8163241363
21494746.734379806	289719.6231728864
21894767.628566206	287198.3662559229
