# Frequency (Hz)	Real Part (Ohm/m)
1000.0	6062474.993040722
1018.6101701559753	6079428.61459155
1037.566678745186	6096697.745924197
1056.875971184804	6114288.258729394
1076.5446128423157	6132206.133971023
1096.5792912678098	6150457.463919734
1116.9868184678226	6169048.454224362
1137.7741332214914	6187985.426021929
1158.9483034398106	6207274.818086888
1180.5165285688054	6226923.189020379
1202.4861420374123	6246937.219480231
1224.8646137509306	6267323.714452447
1247.6595526308697	6288089.605564982
1270.8787092020582	6305561.877985953
1294.529978227916	6319826.332279917
1318.6214013947485	6334356.25049547
1343.1611700460153	6349156.572961367
1368.1576279674719	6364232.331946719
1393.619274224142	6379588.653372018
1419.5547660501015	6395230.758552012
1445.9729217920194	6411163.965971001
1472.882723907502	6427393.69309119
1500.2933220192183	6443925.458194671
1528.2140360258693	6460764.882259706
1556.654359271062	6477917.690871921
1585.6239617711371	6495220.087426587
1615.132693503091	6506167.622480791
1645.1905877536624	6517318.893025141
1675.807864530767	6528677.69061178
1706.9949340384078	6540247.877354272
1738.7624002162504	6552033.387240776
1771.1210643450886	6564038.227471644
1804.0819287193826	6576266.479821904
1837.6562003881704	6588722.302029112
1871.8552949655793	6601409.929207031
1906.690840512252	6614333.675285605
1942.1746814890264	6627497.934477753
1978.3188827841643	6640907.182773445
2015.1357338155585	6651183.46526935
2052.6377527092523	6658713.5024449555
2090.8376905557498	6666383.674893682
2129.748535745521	6674196.590556805
2169.3835183851843	6682154.905909831
2209.756114795903	6690261.326865734
2250.880052095462	6698518.60969498
2292.7693128656488	6706929.561962706
2335.438139906479	6715497.043483307
2378.9010410788933	6724223.9672928145
2423.1727942376006	6733113.300639358
2468.2684522556924	6742168.065992051
2514.2033481427966	6751112.246702103
2560.9931002584594	6754870.887949653
2608.6536176225477	6758699.478150376
2657.2011053245064	6762599.319066191
2706.652070033241	6766571.736685032
2757.0233256095826	6770618.081671687
2808.3319988231724	6774739.729827057
2860.5955351757416	6778938.082555919
2913.831704832789	6783214.567343441
2968.0586086656026	6787570.638240528
3023.2946844057765	6792007.77635822
3079.5587129142264	6796527.4903712915
3136.8698245668766	6801131.317031199
3195.2475057592133	6803140.081937123
3254.711605531848	6803081.902392486
3315.282342319423	6803022.640116624
3376.9803108250912	6802962.274959722
3439.8264890229243	6802900.786396982
3503.8422452906757	6802838.153521625
3569.0493456752292	6802774.3550378
3635.4699612933177	6802709.369253336
3703.126675869927	6802643.174072364
3772.0424934169973	6802575.746987814
3842.240846055061	6802507.065073744
3913.745601980384	6802437.104977568
3986.581073580439	6802083.510077866
4060.7720257003657	6798208.932439946
4136.343684063274	6794262.248252901
4213.321743847289	6790242.115601584
4291.732378422157	6786147.167597575
4371.602248248501	6781976.011914433
4452.958509942655	6777727.230314281
4535.828825510186	6773399.378165593
4620.241371751313	6768990.983952008
4706.224849841281	6764500.548771995
4793.808495089106	6759926.545829207
4883.02208687788	6755267.41991336
4973.895958790063	6750521.5868714405
5066.461008921268	6744112.465289296
5160.7487103859075	6736468.000609797
5256.791122018419	6728681.271141862
5354.620899273607	6720749.629313568
5454.271305329836	6712670.378281234
5555.7762223988775	6704440.771012455
5659.170163246242	6696058.009352088
5764.488282925873	6687519.2430708455
5871.766390733255	6678821.568896187
5981.040962380945	6669962.029525173
6092.349152400711	6660937.612618965
6205.7288067765	6651745.2497785725
6321.218475812449	6642232.810283628
6438.8574272404185	6631189.8599577015
6558.685659571435	6619941.398447185
6680.743915695614	6608483.601153965
6805.073696735206	6596812.572303507
6931.717276155407	6584924.343620245
7060.717714137772	6572814.872978334
7192.118872221193	6560480.043027279
7325.96542821523	6547915.65979199
7462.302891391108	6535117.451246787
7601.17761795533	6522081.065862865
7742.636826811269	6508802.071128731
7886.728615614156	6495275.952043093
8033.501977124735	6481331.432417341
8183.00681586739	6467020.977735298
8335.293965098195	6452444.203056615
8490.415204088747	6437596.152120833
8648.423275731726	6422471.776430656
8809.37190447399	6407065.93353538
8973.31581458352	6391373.385282427
9140.310748756232	6375388.796036305
9310.413487069076	6359106.73086444
9483.681866285926	6342521.653689234
9660.174799522645	6325627.92540575
9839.952296278227	6308419.80196434
10023.075482838643	6291009.349762868
10209.606623060476	6274107.961562363
10399.609139541202	6256892.035651577
10593.1476351837	6239355.718430196
10790.287915161836	6221493.047361415
10991.097009294961	6203297.948944608
11195.643194838794	6184764.236650255
11403.99601970033	6165885.608816484
11616.22632608502	6146655.646506416
11832.40627458378	6127067.811325664
12052.609368708414	6107115.443199213
12276.910479883603	6086791.758106909
12505.385872903913	6066089.845776844
12738.113231864783	6046351.995924396
12975.171686575868	6027021.189885279
13216.641839466038	6007330.634256524
13462.60579298911	5987273.634037048
13713.147177539455	5966843.369630672
13968.351179887397	5946032.894527361
14228.30457214352	5924835.132941351
14493.09574126215	5903242.877405301
14762.81471909391	5881248.786319668
15037.553212997384	5858845.38145651
15317.404637020798	5836025.045416775
15602.46414366368	5812780.019040325
15892.828656229764	5789579.120901422
16188.596901781993	5768672.921879416
16489.86944471065	5747377.654936301
16796.74872092653	5725686.079451856
17109.339072690134	5703590.820056695
17427.746784089173	5681084.364124548
17752.08011717636	5658159.0592178935
18082.44934877952	5634807.11048605
18418.96680799711	5611020.578014838
18761.746914391195	5586791.374126912
19110.90621689136	5562111.260631888
19466.56343342263	5536971.846025251
19828.83949127071	5511364.582635167
20197.857568198782	5488025.21438343
20573.743134329114	5465662.555166668
20956.623994804308	5442883.72305674
21346.630333242454	5419680.973005291
21743.8947560008	5396046.415827299
22148.55233726359	5371972.015518664
22560.74066496859	5347449.586523883
22980.599887588487	5322470.790952871
23408.272761782944	5297027.135745986
23843.904700937208	5271109.969786317
24287.643824604504	5244710.480958177
24739.64100886812	5217819.693150913
25200.049937640895	5191289.326321271
25669.027154919517	5168361.205581056
26146.732118010917	5145006.3886125125
26633.327251749808	5121216.934526221
27128.978003724646	5096984.754651465
27633.852900531667	5072301.609785991
28148.123605075813	5047159.1073945835
28671.964974937695	5021548.698755527
29205.55512182745	4995461.676053934
29749.075472144435	4968889.1694209995
30302.71082866393	4941822.1439181585
30866.649433372742	4914251.396465089
31441.08303147265	4886167.552710595
32026.206936576502	4861396.140419471
32622.220097116733	4837923.081190336
33229.325163989684	4814013.18433487
33847.72855945983	4789658.320230507
34477.640547344636	4764850.207961037
35119.275304507275	4739580.412500986
35772.850993678774	4713840.341847612
36438.58983763541	4687621.2440995565
37116.71819475767	4660914.20448107
37807.466635993485	4633710.142310925
38511.070023255685	4605999.807914858
39227.76758927723	4577773.779480598
39957.803018952654	4550226.718648027
40701.42453219439	4527028.696973017
41458.88496832911	4503398.956167356
42230.441872066716	4479329.461864562
43016.35758106799	4454812.030177221
43816.89931514194	4429838.324914392
44632.33926710397	4404399.8547472
45462.95469532399	4378487.970321687
46309.02801799736	4352093.861317953
47170.84690917023	4325208.553454541
48048.704396551344	4297822.905437099
48942.89896114532	4269927.605850219
49853.73463873894	4241513.169991476
50781.5211232767	4217102.185386158
51726.57387216024	4194082.638291739
52689.21421350677	4170634.6935089817
53669.76945540476	4146750.3784840093
54668.57299720181	4122421.5722923633
55685.96444286408	4097640.0028778003
56722.28971644549	4072397.244239696
57777.90117970507	4046684.7135681333
58853.1577519145	4020493.668325633
59948.42503189408	3993815.203274606
61064.07542232036	3966640.247449479
62200.48825634718	3938959.5610724622
63358.04992658254	3912225.565923404
64537.15401646702	3890075.926310348
65738.20143409586	3867514.078135199
66961.60054853215	3844532.3501264765
68207.76732865692	3821122.9282490322
69477.1254846024	3797277.853047197
70770.10661181889	3772989.0169384745
72087.15033782135	3748248.1614568774
73428.70447166759	3723046.874444963
74795.22515621828	3697376.5871936064
76187.17702322999	3671228.5715285502
77605.0333513357	3644593.9368427275
79049.2762269642	3617463.6270733583
80520.39670825469	3594669.965419925
82018.8949920221	3573191.3222744456
83545.28058382872	3551312.9579253127
85100.07247122246	3529027.433492907
86683.79930019773	3506327.1716588004
88296.99955494082	3483204.454089374
89940.22174092053	3459651.4188115103
91614.0245713852	3435660.057539439
93318.9771573324	3411222.2129518203
95055.65920101192	3386329.5759181813
96824.66119303115	3360973.6826737155
98626.5846131283	3335145.9119415097
100462.04213468132	3310453.480568775
102331.65783302448	3290194.4522695723
104236.06739764012	3269558.4000065275
106175.9183482999	3248538.3072995194
108151.87025522892	3227127.027090537
110164.59496336569	3205317.27931361
112214.77682079801	3183101.6484194957
114303.11291144785	3160472.58085432
116430.31329208757	3137422.3824912845
118597.10123376705	3113943.2160145827
120804.21346773289	3090027.0982546303
123052.40043592616	3065665.897473695
125342.42654613995	3040851.3306010235
127675.07043192645	3020405.1158916694
130051.12521734099	3001096.791094134
132471.39878661174	2981429.1350866924
134936.71405883064	2961395.460654383
137447.90926775365	2940988.9561320385
140005.8382468096	2920202.683088244
142611.37071941295	2899029.5739661944
145265.39259467812	2877462.429680654
147968.80626863963	2855493.9171701823
150722.53093107554	2833116.566903816
153527.5028780421	2810322.770341354
156384.67583022476	2787104.777346361
159295.0212572123	2765126.234975733
162259.5287078087	2747186.302235615
165279.2061464897	2728912.504294615
168355.08029612005	2710298.6278645396
171488.19698705408	2691338.3440268356
174679.62151272455	2672025.2060807077
177930.43899185772	2652352.647351157
181241.75473742394	2632313.9789562444
184614.69463245454	2611902.387532807
188050.40551285836	2591110.9329198203
191550.0555573528	2569932.545798698
195114.83468466165	2548360.0252896226
198745.9549580986	2526386.0365031785
202444.65099768018	2508592.07546712
206212.18039991445	2491716.7166999015
210049.8241653915	2474527.3046345836
213958.88713434213	2457017.994685849
217940.6984302958	2439182.8334996533
221996.61191199525	2421015.756929027
226128.00663372793	2402510.587972181
230336.2873142131	2383661.034672284
234622.88481422624	2364460.6879781126
238989.25662310526	2344903.019564907
243436.8873543108	2324981.379614681
247967.289250216	2304688.9945551916
252582.00269627848	2285665.1785617014
257282.59674479323	2270164.090635662
262070.66964838552	2254374.5248257145
266947.8494034318	2238291.112509359
271915.7943036019	2221908.3851531036
276976.1935036891	2205220.772453131
282130.76759394706	2188222.600441315
287381.2691851069	2170908.089556017
292729.4835042813	2153271.3526769793
298177.22900196735	2135306.393123623
303726.3579703311	2117007.1026161355
309378.75717301364	2098367.25919857
315136.34848664823	2079380.525123321
321001.08955431683	2064246.3022374178
326974.97445117676	2049809.9924266657
333060.03436245886	2035105.020433913
339258.33827409917	2020126.386410236
345571.9936762143	2004868.9974586722
352003.1472796675	1989327.6659025887
358553.9857459817	1973497.1075217915
365226.7364308175	1957371.9397558654
372023.6681413066	1940946.6798740216
378947.09190746717	1924215.7431109191
385999.36176797637	1907173.4407677904
393182.87557057705	1889813.9782782025
400500.07578736113	1873693.761266731
407953.45034524484	1860548.408916021
415545.53347188793	1847158.4193213026
423278.90655735444	1833519.2397418423
431156.19903182285	1819626.2327096183
439180.0892596086	1805474.6744525474
447353.3054498463	1791059.7532883405
455678.6265841068	1776376.567988481
464158.8833612772	1761420.1261117624
472796.9591600391	1746185.3423067867
481595.79101923504	1730667.036582913
490558.37063650455	1714859.9325489854
499687.7453854889	1698758.6556193116
508987.0193519675	1686110.0901576777
518459.3543892913	1673960.9391030425
528107.971193433	1661585.6902800314
537936.1503980698	1648980.1359707015
547947.2336900292	1636139.990150763
558144.6249454955	1623060.8870322907
568531.7913873753	1609738.3795792933
579112.2647641759	1596167.937995693
589889.6425508494	1582344.94818513
600867.5891719692	1568264.7101821264
612049.837247669	1553922.4365540538
623440.1888627863	1539313.250773336
635042.5168595961	1525873.3235893939
646860.7661546321	1514884.4765828007
658898.9550799957	1503691.1252635953
671161.1767496272	1492289.463771727
683651.6004510238	1480675.6154194316
696374.4730628222	1468845.631373135
709334.1204987989	1456795.4893107947
722534.9491787221	1444521.0920542693
735981.4475265755	1432018.2661762408
749678.1874966878	1419282.7605811884
763629.8261282243	1406310.2450599915
777841.1071286482	1393096.3088175938
792316.8624866261	1379636.4589732934
807062.0141149492	1369206.2632246453
822081.575524054	1359109.7193584947
837380.6535266489	1348825.2770930089
852964.4499741016	1338349.4396070028
868838.2635251193	1327678.6450028548
885007.4914473438	1316809.2650954248
901477.6314524917	1305737.6041784277
918254.2835656281	1294459.897767857
935343.1520292377	1282972.3113220155
952750.0472427299	1271270.938937734
970480.8877380306	1259351.8020223244
988541.7021919573	1247210.8479408063
1006938.6314760271	1236144.2741828882
1025677.9307444209	1227059.0396983698
1044765.9715608053	1217804.7274541866
1064209.2440647245	1208378.1908844637
1084014.359178331	1198776.2248651965
1104188.0508541602	1188995.564624479
1124737.1783647507	1179032.8846324438
1145668.7286348727	1168884.7974705463
1166989.8186171474	1158547.8526798096
1188707.6977119034	1148018.5355876242
1210829.7502320393	1137293.2661127266
1233363.4979137746	1126368.3975479328
1256316.6024741214	1115240.215320215
1279696.8682159416	1106727.8149455828
1303512.2446815087	1098418.1371545272
1327770.829355429	1089953.8148458384
1352480.8704178738	1081331.9700587299
1377650.769549055	1072549.6712730736
1403289.084785873	1063603.932412657
1429404.533431761	1054491.711829877
1456005.9950206485	1045209.9112715528
1483102.514336103	1035755.3748254841
1510703.3044866556	1026124.8878474073
1538817.7500383465	1016315.1758679845
1567455.410205595	1006322.9034794436
1596626.022101425	997297.7384153936
1626339.5040481905	989850.2355133875
1656605.9589499151	982264.133315137
1687435.6777273756	974536.8524641572
1718839.1428171454	966665.7656016977
1750827.0317357269	958648.1964734143
1783410.220710006	950481.4190194181
1816599.7883753285	942162.6564473754
1850407.019542302	933689.0802883807
1884843.4090337954	925057.8094352374
1919920.6655932867	916265.909162854
1955650.715865947	907310.3901304089
1992045.7084538713	898188.2073649331
2029118.0180466783	891296.4074060587
2066880.2496290822	884508.6296692434
2105345.242766708	877594.5302337642
2144526.0759716653	870551.7582313168
2184436.0711494284	863377.9190435327
2225088.7981283693	856070.5734877931
2266498.079273693	848627.2369878727
2308677.994187172	841045.3787291597
2351642.884494346	833322.4207981552
2395407.358720879	825455.7373059455
2439986.29725955	817442.6534953837
2485394.857429798	809280.4448316332
2531648.478631358	801974.7832402799
2578762.8875937983	795910.1715318987
2626754.1037238385	789732.6963676931
2675638.4445520453	783440.2573395483
2725432.531281028	777030.7149503934
2776153.2944368036	770501.8898867539
2827817.979625338	763851.5622777627
2880444.1533962977	757077.4709403738
2934049.709215787	750177.3126105445
2988652.873550383	743148.7411600943
3044272.2120643063	735989.3667989968
3100926.6359319235	728696.7552628306
3158635.408267819	721268.4269850933
3217418.1506763715	715723.3865425783
3277294.849923382	710211.167200373
3338285.8647317644	704596.3645182715
3400411.9327037027	698877.0694028651
3463694.1773717343	693051.3372321876
3528154.1153808828	687117.1871945313
3593813.6638046256	681072.6016149431
3660695.147596906	674915.5252691957
3728821.30718283	668643.8646849919
3798215.306190736	662255.4874301542
3868900.7393279755	655748.221387584
3940901.6404034477	649119.8540167117
4014242.490499326	643240.351073588
4088948.226294856	638327.3513125544
4165044.248545185	633322.9197899905
4242556.430717777	628225.3549452582
4321511.127789762	623032.9235513846
4401935.1852088785	617743.8601257469
4483855.948021181	612356.3663297938
4567301.270168747	606868.6103575823
4652299.523960189	601278.7263129542
4738879.609717651	595584.8135751033
4827070.965603188	589784.9361523471
4916903.577628021	583877.122023871
5008407.989848212	577859.3624692127
5101615.314749833	573419.6211628381
5196557.243827657	568963.709120199
5293266.058360566	564424.8717962455
5391774.640387494	559801.5659373843
5492116.483887789	555092.2195698054
5594325.706169377	550295.231465003
5698437.0594691355	545408.970595334
5804485.942768984	540431.7755794533
5912508.413831869	535361.9541174289
6022541.201461928	530197.7824153346
6134621.717992506	524937.5045991502
6248788.072006888	519579.3321177389
6365079.081295578	514869.05812025577
6483534.286054714	510905.0903277683
6604193.962330305	506867.35242016887
6727099.135712336	502754.47152306436
6852291.595284057	498565.04921263346
6979813.907830667	494297.66104014963
7109709.432312423	489950.8560476552
7242022.334607315	485523.15627461474
7376797.60252773	481013.05625539896
7514081.061116962	476419.0225074049
7653919.388230155	471739.4930096579
7796360.130405221	466972.8766717091
7941451.71902934	462117.5527926418
8089243.486805938	458576.3961109284
8239785.684528512	454987.28115610353
8393129.498166373	451331.37216125976
8549327.066268368	447607.42607794784
8708431.497690724	443814.17672437296
8870496.889654402	439950.3343548845
9035578.34613892	436014.58522144397
9203731.99661823	432005.5911269386
9375015.01514529	427921.98897018033
9549485.639791967	423762.39028243563
9727203.192450536	419525.38075533137
9908228.099003786	415209.51975997543
10092621.909870483	411449.424469652
10280447.320933098	408261.3293158652
10471768.194855202	405013.90316879295
10666649.582795387	401706.0418685546
10865157.746525371	398336.62070666644
11067360.180959744	394904.49404362816
11273325.63710487	391408.49491939414
11483124.14543511	387847.4346565931
11696827.039703846	384220.1024563654
11914506.981197748	380525.26498667937
12136237.983442418	376761.6659629834
12362095.437367693	372928.0257210579
12592156.13694151	369037.2516618222
12826498.3052806	366207.1359907281
13065201.621247198	363324.35138543387
13308347.24654076	360387.91766811174
13556017.853293689	357396.83641965885
13808297.652180923	354350.0906402218
14065272.421052363	351246.6444034076
14327029.534098294	348085.44250405626
14593657.991557576	344865.4100994602
14865248.449978571	341585.4523439074
15141893.25304352	338244.45401641924
15423686.462966273	334841.27914156567
15710723.892474487	331374.7706032205
16003103.137387017	328381.63674561353
16300923.609797413	325823.9668402439
16604286.571875297	323218.69826273253
16913295.17029647	320564.9451936917
17228054.471313924	317861.80532848404
17548671.49648152	315108.35957042925
17875255.259042352	312303.67171830207
18207916.800994623	309446.7881480123
18546769.230846975	306536.7374883637
18891927.762076646	303572.5302907765
19243509.75230332	300553.1586928644
19601634.743191857	297477.59607575124
19966424.501097932	294379.0792420997
20338003.0584698	292110.9749630946
20716496.75602067	289800.66087752563
21102034.285685964	287447.35145371035
21494746.734379806	285050.2465410883
21894767.628566206	282608.53109816066
22302232.979659364	280121.37491536763
22717281.330269028	277587.9323328085
