Frequency [GHz]	Zx imag [Ohm/m]	Zy imag [Ohm/m]
1.000000000000000166e-10	1.330525879443034716e+07	3.756429976425947994e+07
1.032794731918951654e-10	1.330521515681530163e+07	3.756423256415581703e+07
1.066664958279539403e-10	1.330517008811637200e+07	3.756416316024276614e+07
1.101645949633656381e-10	1.330512354140154086e+07	3.756409148024699837e+07
1.137774133221491146e-10	1.330507546819967590e+07	3.756401744952498376e+07
1.175087130904807540e-10	1.330502581845004298e+07	3.756394099098528922e+07
1.213623798344240958e-10	1.330497454045018181e+07	3.756386202500827610e+07
1.253424265461399975e-10	1.330492158080206066e+07	3.756378046936322004e+07
1.294529978227915867e-10	1.330486688435647823e+07	3.756369623912265152e+07
1.336983741824946476e-10	1.330481039415562525e+07	3.756360924657391757e+07
1.380829765218092491e-10	1.330475205137377791e+07	3.756351940112787485e+07
1.426113707194128486e-10	1.330469179525604285e+07	3.756342660922450572e+07
1.472882723907502473e-10	1.330462956305507943e+07	3.756333077423555404e+07
1.521185517986104510e-10	1.330456528996576928e+07	3.756323179636382312e+07
1.571072389247450498e-10	1.330449890905772522e+07	3.756312957253932208e+07
1.622595287078087593e-10	1.330443035120559484e+07	3.756302399631190300e+07
1.675807864530767868e-10	1.330435954501708597e+07	3.756291495774041116e+07
1.730765534195724819e-10	1.330428641675860621e+07	3.756280234327819943e+07
1.787525525904235329e-10	1.330421089027849212e+07	3.756268603565488011e+07
1.846146946324547531e-10	1.330413288692771271e+07	3.756256591375424713e+07
1.906690840512252406e-10	1.330405232547795214e+07	3.756244185248807073e+07
1.969220255479172543e-10	1.330396912203704752e+07	3.756231372266594321e+07
2.033800305846981002e-10	1.330388318996160105e+07	3.756218139086063951e+07
2.100498241653915480e-10	1.330379443976677768e+07	3.756204471926925331e+07
2.169383518385184289e-10	1.330370277903310768e+07	3.756190356556967646e+07
2.240527869300018610e-10	1.330360811231024936e+07	3.756175778277235478e+07
2.314005380130653023e-10	1.330351034101759270e+07	3.756160721906728297e+07
2.389892566231049743e-10	1.330340936334160529e+07	3.756145171766585857e+07
2.468268452255692806e-10	1.330330507412980311e+07	3.756129111663766950e+07
2.549214654451423314e-10	1.330319736478125863e+07	3.756112524874180555e+07
2.632815465648021228e-10	1.330308612313350104e+07	3.756095394125276804e+07
2.719157943036017723e-10	1.330297123334573023e+07	3.756077701578056067e+07
2.808331998823172083e-10	1.330285257577816769e+07	3.756059428808490932e+07
2.900430493863991314e-10	1.330273002686748654e+07	3.756040556788346916e+07
2.995549334359813486e-10	1.330260345899813436e+07	3.756021065865361691e+07
3.093787571730138678e-10	1.330247274036943540e+07	3.756000935742782056e+07
3.195247505759212065e-10	1.330233773485835083e+07	3.755980145458228886e+07
3.300034791125284578e-10	1.330219830187772587e+07	3.755958673361867666e+07
3.408258547423451742e-10	1.330205429622987658e+07	3.755936497093862295e+07
3.520031472796679687e-10	1.330190556795541383e+07	3.755913593561092764e+07
3.635469961293320139e-10	1.330175196217706054e+07	3.755889938913106173e+07
3.754694224073336536e-10	1.330159331893838570e+07	3.755865508517280221e+07
3.877828414589456106e-10	1.330142947303722799e+07	3.755840276933172345e+07
4.005000757873611052e-10	1.330126025385366566e+07	3.755814217886027694e+07
4.136343684063274911e-10	1.330108548517234065e+07	3.755787304239418358e+07
4.271993966306778827e-10	1.330090498499896564e+07	3.755759507966982573e+07
4.412092863191189219e-10	1.330071856537079252e+07	3.755730800123244524e+07
4.556786265841064474e-10	1.330052603216089122e+07	3.755701150813467056e+07
4.706224849841281415e-10	1.330032718487598188e+07	3.755670529162523896e+07
4.860564232142136024e-10	1.330012181644767523e+07	3.755638903282747418e+07
5.019965133110081441e-10	1.329990971301681548e+07	3.755606240240721405e+07
5.184593543892912175e-10	1.329969065371080115e+07	3.755572506022988260e+07
5.354620899273606527e-10	1.329946441041357443e+07	3.755537665500628948e+07
5.530224256192902378e-10	1.329923074752806313e+07	3.755501682392678410e+07
5.711586478126431938e-10	1.329898942173086479e+07	3.755464519228348881e+07
5.898896425508497150e-10	1.329874018171883933e+07	3.755426137308008224e+07
6.092349152400710261e-10	1.329848276794743910e+07	3.755386496662879735e+07
6.292146109610343618e-10	1.329821691236041300e+07	3.755345556013420224e+07
6.498495354469890483e-10	1.329794233811067976e+07	3.755303272726338357e+07
6.711611767496282870e-10	1.329765875927203521e+07	3.755259602770191431e+07
6.931717276155404727e-10	1.329736588054140098e+07	3.755214500669539720e+07
7.159041085964887260e-10	1.329706339693130925e+07	3.755167919457587600e+07
7.393819919175865964e-10	1.329675099345231429e+07	3.755119810627277195e+07
7.636298261282244400e-10	1.329642834478497505e+07	3.755070124080774933e+07
7.886728615614152294e-10	1.329609511494108848e+07	3.755018808077298850e+07
8.145371766280743462e-10	1.329575095691380277e+07	3.754965809179246426e+07
8.412497049736117954e-10	1.329539551231627539e+07	3.754911072196539491e+07
8.688382635251186617e-10	1.329502841100845672e+07	3.754854540129160136e+07
8.973315814583522479e-10	1.329464927071166597e+07	3.754796154107785225e+07
9.267593301146878953e-10	1.329425769661047868e+07	3.754735853332491219e+07
9.571521538991863169e-10	1.329385328094161861e+07	3.754673575009437650e+07
9.885417021919573871e-10	1.329343560256931186e+07	3.754609254285474867e+07
1.020960662306046580e-09	1.329304734925651550e+07	3.754544161823201180e+07
1.054442793526168950e-09	1.329267070970332809e+07	3.754477689883640409e+07
1.089022962263730067e-09	1.329228171835696138e+07	3.754409038014641404e+07
1.124737178364752061e-09	1.329187997014367208e+07	3.754338134726003557e+07
1.161622632608501755e-09	1.329146504670542851e+07	3.754264906183022261e+07
1.199717735435884489e-09	1.329103651596426219e+07	3.754189276129604876e+07
1.239062156947916503e-09	1.329059393167231791e+07	3.754111165808860958e+07
1.279696868215940940e-09	1.329013683294717036e+07	3.754030493881088495e+07
1.321664183946605026e-09	1.328966474379187077e+07	3.753947176339070499e+07
1.365007806546013663e-09	1.328917717259928212e+07	3.753861126420598477e+07
1.409772871628966933e-09	1.328867361164013669e+07	3.753772254518118501e+07
1.456005995020649598e-09	1.328815353653433546e+07	3.753680468085420877e+07
1.503755321299737753e-09	1.328761640570486151e+07	3.753585671541269869e+07
1.553070573933460069e-09	1.328706165981382877e+07	3.753487766169866174e+07
1.604003107056820079e-09	1.328648872118001617e+07	3.753386650018054247e+07
1.656605958949914401e-09	1.328589699317730032e+07	3.753282217789150774e+07
1.710933907269014249e-09	1.328528585961337015e+07	3.753174360733296722e+07
1.767043526088946692e-09	1.328465468408804201e+07	3.753062966534210742e+07
1.824993244816152494e-09	1.328400280933056585e+07	3.752947919192227721e+07
1.884843409033795523e-09	1.328332955651517585e+07	3.752829098903506249e+07
1.946656343342262358e-09	1.328263422455418855e+07	3.752706381935270876e+07
2.010496416260498236e-09	1.328191608936795034e+07	3.752579640496958792e+07
2.076430107255774870e-09	1.328117440313079394e+07	3.752448742607155442e+07
2.144526075971667793e-09	1.328040839349232242e+07	3.752313551956146210e+07
2.214855233726359314e-09	1.327961726277311146e+07	3.752173927763979882e+07
2.287490817355702788e-09	1.327880018713404983e+07	3.752029724633862078e+07
2.362508465477946229e-09	1.327795631571844965e+07	3.751880792400749773e+07
2.439986297259550245e-09	1.327708476976599917e+07	3.751726975974978507e+07
2.520004993764092080e-09	1.327618464169768244e+07	3.751568115180759877e+07
2.602647881969005809e-09	1.327525499417067505e+07	3.751404044589381665e+07
2.688001021537606561e-09	1.327429485910223797e+07	3.751234593346944451e+07
2.776153294436799262e-09	1.327330323666162603e+07	3.751059584996437281e+07
2.867196497493770032e-09	1.327227909422891028e+07	3.750878837293992192e+07
2.961225437988034610e-09	1.327122136531966552e+07	3.750692162019100040e+07
3.058338032378433485e-09	1.327012894847439975e+07	3.750499364778611809e+07
3.158635408267817403e-09	1.326900070611155033e+07	3.750300244804307073e+07
3.262222009711669644e-09	1.326783546334287152e+07	3.750094594743825495e+07
3.369205705980266915e-09	1.326663200674997270e+07	3.749882200444741547e+07
3.479697903887691433e-09	1.326538908312073350e+07	3.749662840731558204e+07
3.593813663804627762e-09	1.326410539814427868e+07	3.749436287175386399e+07
3.711671819475765297e-09	1.326277961506315134e+07	3.749202303856074810e+07
3.833395101766601886e-09	1.326141035328129679e+07	3.748960647116532922e+07
3.959110266468459240e-09	1.325999618692637980e+07	3.748711065309002250e+07
4.088948226294862618e-09	1.325853564336496405e+07	3.748453298533000797e+07
4.223044187206674123e-09	1.325702720166899636e+07	3.748187078364682943e+07
4.361537789208003199e-09	1.325546929103199206e+07	3.747912127577313781e+07
4.504573251759458750e-09	1.325386028913329542e+07	3.747628159852581471e+07
4.652299523960189308e-09	1.325219852044867165e+07	3.747334879482443631e+07
4.804870439655131104e-09	1.325048225450552627e+07	3.747031981061190367e+07
4.962444877628916452e-09	1.324870970408087410e+07	3.746719149167412519e+07
5.125186927053329472e-09	1.324687902334023267e+07	3.746396058035542816e+07
5.293266058360561204e-09	1.324498830591547117e+07	3.746062371216618270e+07
5.466857299720180771e-09	1.324303558291963115e+07	3.745717741227921844e+07
5.646141419303669251e-09	1.324101882089663111e+07	3.745361809191135317e+07
5.831305113526221869e-09	1.323893591970374063e+07	3.744994204458621144e+07
6.022541201461928965e-09	1.323678471032461710e+07	3.744614544227451086e+07
6.220048825634711276e-09	1.323456295261060447e+07	3.744222433140780032e+07
6.424033659394191079e-09	1.323226833294796944e+07	3.743817462876139581e+07
6.634708121092347870e-09	1.322989846184864454e+07	3.743399211720234901e+07
6.852291595284060743e-09	1.322745087146193348e+07	3.742967244129797071e+07
7.077010661181889919e-09	1.322492301300464384e+07	3.742521110278033465e+07
7.309099328602911004e-09	1.322231225410691649e+07	3.742060345586200804e+07
7.548799281653435948e-09	1.321961587607103400e+07	3.741584470239822567e+07
7.796360130405233414e-09	1.321683107104031555e+07	3.741092988689032942e+07
8.052039670825474778e-09	1.321395493907516450e+07	3.740585389132541418e+07
8.316104153230961616e-09	1.321098448513325304e+07	3.740061142984673381e+07
8.588828559546249041e-09	1.320791661595064029e+07	3.739519704324926436e+07
8.870496889654407999e-09	1.320474813682062179e+07	3.738960509329481423e+07
9.161402457138517586e-09	1.320147574826694094e+07	3.738382975684071332e+07
9.461848194721997291e-09	1.319809604260791093e+07	3.737786501977586001e+07
9.772146969725725887e-09	1.319460550040782616e+07	3.737170467075799406e+07
1.009262190987047331e-08	1.319110870941529237e+07	3.736539700596103072e+07
1.042360673976401127e-08	1.318777220434603468e+07	3.735902148831833154e+07
1.076544612842315905e-08	1.318432627948748320e+07	3.735243688728369027e+07
1.111849604819270880e-08	1.318076734644698165e+07	3.734563634602332860e+07
1.148312414543511117e-08	1.317709169915150106e+07	3.733861278283542395e+07
1.185971012337669343e-08	1.317329550998833589e+07	3.733135888377566636e+07
1.224864613750930795e-08	1.316937482581925020e+07	3.732386709504086524e+07
1.265033720395903769e-08	1.316534841185952909e+07	3.731614498640879244e+07
1.306520162124721228e-08	1.316132153453233093e+07	3.730825815677406639e+07
1.349367140588306343e-08	1.315716259684271552e+07	3.730011268067577481e+07
1.393619274224142065e-08	1.315286726790650375e+07	3.729170007587248832e+07
1.439322644719406651e-08	1.314843107480932586e+07	3.728301158194992691e+07
1.486524844997857277e-08	1.314384939794878289e+07	3.727403815119840950e+07
1.535275028780422776e-08	1.313911746622386016e+07	3.726477043919099867e+07
1.585623961771137302e-08	1.313423321976470761e+07	3.725520093543644994e+07
1.637624074521687477e-08	1.312938989310474508e+07	3.724546769678998739e+07
1.691329517029648562e-08	1.312438773084537126e+07	3.723541525919140130e+07
1.746796215127245689e-08	1.311922152401568741e+07	3.722503315459664166e+07
1.804081928719382751e-08	1.311388589281798713e+07	3.721431057166493684e+07
1.863246311931559514e-08	1.310837528102553822e+07	3.720323634450051188e+07
1.924350975230330612e-08	1.310268395019664615e+07	3.719179894102502614e+07
1.987459549580983990e-08	1.309680597369896062e+07	3.717998645096870512e+07
2.052637752709252173e-08	1.309097030983469449e+07	3.716798108076257259e+07
2.119953457536071000e-08	1.308497628492752835e+07	3.715560931712018698e+07
2.189476762856620985e-08	1.307878568758041598e+07	3.714283182480578870e+07
2.261280066337277307e-08	1.307239207125288621e+07	3.712963529805634916e+07
2.335438139906479724e-08	1.306578877799190208e+07	3.711600599474988878e+07
2.412028207618007283e-08	1.305896893149864301e+07	3.710192972209525853e+07
2.491130026067788373e-08	1.305192542996790819e+07	3.708739182185250521e+07
2.572825967447932303e-08	1.304491030925543234e+07	3.707261488932234049e+07
2.657201105324503850e-08	1.303775637004023604e+07	3.705743698060399294e+07
2.744343303228365032e-08	1.303036781930631399e+07	3.704176131643813848e+07
2.834343306151309448e-08	1.302273696303180046e+07	3.702557157306831330e+07
2.927294835042816131e-08	1.301485585487145372e+07	3.700885089140483737e+07
3.023294684405776334e-08	1.300671628788176551e+07	3.699158185946869850e+07
3.122442823092858392e-08	1.299830978597471118e+07	3.697374649425972253e+07
3.224842498408442807e-08	1.298990276398927532e+07	3.695560528654493392e+07
3.330600343624588813e-08	1.298140098075824417e+07	3.693705264858427644e+07
3.439826489022924478e-08	1.297262038382532075e+07	3.691789158183530718e+07
3.552634676578139226e-08	1.296355182956989296e+07	3.689810213303902745e+07
3.669142378402493899e-08	1.295418587450876459e+07	3.687766369457464665e+07
3.789470919074667737e-08	1.294451276546224207e+07	3.685655498299998045e+07
3.913745601980383687e-08	1.293452242939771712e+07	3.683475401688807458e+07
4.042095839796305955e-08	1.292448022852060199e+07	3.681254703549525887e+07
4.174655289253134782e-08	1.291442291792289540e+07	3.678996380609104782e+07
4.311561990318228626e-08	1.290403578052031063e+07	3.676663996573266387e+07
4.452958509942655287e-08	1.289330799973120354e+07	3.674255122628240287e+07
4.598992090522439315e-08	1.288222840424703062e+07	3.671767250307960808e+07
4.749814803228499868e-08	1.287078545639918558e+07	3.669197788881889731e+07
4.905583706365045989e-08	1.285896724014430679e+07	3.666544062657173723e+07
5.066461008921269181e-08	1.284701343010346591e+07	3.663834428684785962e+07
5.232614239486661694e-08	1.283517431673037075e+07	3.661098514323461056e+07
5.404216420705915059e-08	1.282294694280804321e+07	3.658272876384104043e+07
5.581446249454960394e-08	1.281031857543586195e+07	3.655354572406025231e+07
5.764488282925879445e-08	1.279727606414113380e+07	3.652340563431327045e+07
5.953533130814369715e-08	1.278380582718494907e+07	3.649227710840302706e+07
6.148777653810024108e-08	1.276989383741890080e+07	3.646012773083052784e+07
6.350425168595962148e-08	1.275571703510527499e+07	3.642718400434591621e+07
6.558685659571428548e-08	1.274185349254829809e+07	3.639421676424191892e+07
6.773775997517751128e-08	1.272753529882971756e+07	3.636016837233661115e+07
6.995920165435375620e-08	1.271274754378657043e+07	3.632500337254650146e+07
7.225349491787214948e-08	1.269747482828110456e+07	3.628868514601533115e+07
7.462302891391107044e-08	1.268170124816496111e+07	3.625117587298130989e+07
7.707027114212294845e-08	1.266541037771750614e+07	3.621243649339366704e+07
7.959777002314985573e-08	1.264866320135839656e+07	3.617254272302442044e+07
8.220815755240541849e-08	1.263251989216336235e+07	3.613305745951439440e+07
8.490415204088747078e-08	1.261584716747099161e+07	3.609227728737280518e+07
8.768856094587425811e-08	1.259862766524197720e+07	3.605015974041823298e+07
9.056428379445295063e-08	1.258084345405358262e+07	3.600666095980219543e+07
9.353431520292386860e-08	1.256247601442687586e+07	3.596173564833704382e+07
9.660174799522647250e-08	1.254350621954157390e+07	3.591533702332603186e+07
9.976977642363202159e-08	1.252391431531845033e+07	3.586741676784636825e+07
1.030416994950587396e-07	1.250511956500345282e+07	3.582026644328907877e+07
1.064209244064724761e-07	1.248582098643117771e+07	3.577175287174493074e+07
1.099109700929497372e-07	1.246588951614820771e+07	3.572164831062755734e+07
1.135154708920999096e-07	1.244530439864055999e+07	3.566990058386042714e+07
1.172381803286598596e-07	1.242404419772272743e+07	3.561645580426655710e+07
1.210829750232039531e-07	1.240208677421525121e+07	3.556125831745343655e+07
1.250538587290391570e-07	1.237940926289021596e+07	3.550425064385767281e+07
1.291549665014884007e-07	1.235752348061738722e+07	3.544808972274620086e+07
1.333905690039058854e-07	1.233532762312516570e+07	3.539080820849784464e+07
1.377650769549053468e-07	1.231240385843677819e+07	3.533164816234580427e+07
1.422830457214352017e-07	1.228872831503085978e+07	3.527054797833989561e+07
1.469491800624817218e-07	1.226427633852590993e+07	3.520744403017930686e+07
1.517683390283405561e-07	1.223902246600659378e+07	3.514227060495577008e+07
1.567455410205594968e-07	1.221294039950808883e+07	3.507495983472379297e+07
1.618859690178197646e-07	1.218758045923964493e+07	3.500846262970664352e+07
1.671949759731990056e-07	1.216222525501741283e+07	3.494138645707409084e+07
1.726780903884356132e-07	1.213603853366996162e+07	3.487211053934191167e+07
1.783410220710008120e-07	1.210899302581608668e+07	3.480056273645926267e+07
1.841896680799711039e-07	1.208106056778253056e+07	3.472666854256168753e+07
1.902301188668944219e-07	1.205221207227592729e+07	3.465035100838487595e+07
1.964686646180446931e-07	1.202241749809291959e+07	3.457153066113401204e+07
2.029118018046678038e-07	1.199318498644797876e+07	3.449329914562480152e+07
2.095662399480432992e-07	1.196442943704334088e+07	3.441546229008646309e+07
2.164389086064020114e-07	1.193473085710480064e+07	3.433507279573732615e+07
2.235369645909794139e-07	1.190405832019879855e+07	3.425204694947190583e+07
2.308677994187169850e-07	1.187237988566769101e+07	3.416629829283587635e+07
2.384390470093720426e-07	1.183966256536852196e+07	3.407773753199305385e+07
2.462585916350547006e-07	1.180587228932103887e+07	3.398627244473985583e+07
2.543345761304648365e-07	1.177236211251070350e+07	3.389487160558693856e+07
2.626754103723835758e-07	1.173999986547187902e+07	3.380543213220054656e+07
2.712897800372467241e-07	1.170657630721711926e+07	3.371305951526147127e+07
2.801866556459195443e-07	1.167205663232961856e+07	3.361765756311322749e+07
2.893753019050950594e-07	1.163640489395825565e+07	3.351912692951973900e+07
2.988652873550382326e-07	1.159958396638455614e+07	3.341736501021174714e+07
3.086664943337274455e-07	1.156155550636206940e+07	3.331226583604048565e+07
3.187891292677645596e-07	1.152336727058121748e+07	3.320627204863671213e+07
3.292437333007768907e-07	1.148724186380678788e+07	3.310458317985856906e+07
3.400411932703706463e-07	1.144993173400172964e+07	3.299955945188969374e+07
3.511927530450727317e-07	1.141139802849184908e+07	3.289109149891695753e+07
3.627100252330649086e-07	1.137160062043992989e+07	3.277906636850468069e+07
3.746050032748993774e-07	1.133049806705988012e+07	3.266336740397235006e+07
3.868900739327976195e-07	1.128804756646054611e+07	3.254387412291488051e+07
3.995780301895269929e-07	1.124479997357720137e+07	3.242193728230573982e+07
4.126820845702951630e-07	1.120482097486764006e+07	3.230762062977232784e+07
4.262158829015325345e-07	1.116353087561300956e+07	3.218955499326520413e+07
4.401935185208874400e-07	1.112088667862241715e+07	3.206761742585999519e+07
4.546295469532399562e-07	1.107684397662361898e+07	3.194168094862088189e+07
4.695390010680058238e-07	1.103135690601978265e+07	3.181161441837189347e+07
4.849374067335232931e-07	1.098437809912971780e+07	3.167728239113176242e+07
5.008407989848212921e-07	1.093585863486181758e+07	3.153854498107015714e+07
5.172657387216018967e-07	1.089188550786877237e+07	3.141121521925481409e+07
