# Frequency (Hz)	Real Part (Ohm/m)
1000.0	34688875.62834623
1018.6101701559753	34768247.650695115
1037.566678745186	34849096.79988555
1056.875971184804	34931450.56549937
1076.5446128423157	35015336.94870427
1096.5792912678098	35100784.47177437
1116.9868184678226	35187822.187788226
1137.7741332214914	35276479.69050708
1158.9483034398106	35366787.12443712
1180.5165285688054	35458775.19507897
1202.4861420374123	35552475.17936776
1224.8646137509306	35647918.93630779
1247.6595526308697	35745138.9178048
1270.8787092020582	35825013.16393905
1294.529978227916	35887984.507932134
1318.6214013947485	35952127.75935185
1343.1611700460153	36017464.72759487
1368.1576279674719	36084017.62793437
1393.619274224142	36151809.08907355
1419.5547660501015	36220862.160839655
1445.9729217920194	36291200.32202112
1472.882723907502	36362847.48835063
1500.2933220192183	36435828.02063675
1528.2140360258693	36510166.73304675
1556.654359271062	36585888.90154389
1585.6239617711371	36662160.76931162
1615.132693503091	36706020.63305297
1645.1905877536624	36750696.73632155
1675.807864530767	36796204.269473895
1706.9949340384078	36842558.70556156
1738.7624002162504	36889775.80559232
1771.1210643450886	36937871.6238889
1804.0819287193826	36986862.51354778
1837.6562003881704	37036765.13199931
1871.8552949655793	37087596.44667144
1906.690840512252	37139373.74075889
1942.1746814890264	37192114.61909949
1978.3188827841643	37245837.014160216
2015.1357338155585	37283965.31087031
2052.6377527092523	37308392.49905303
2090.8376905557498	37333274.28136427
2129.748535745521	37358619.1178781
2169.3835183851843	37384435.626112044
2209.756114795903	37410732.58395704
2250.880052095462	37437518.93266212
2292.7693128656488	37464803.77987445
2335.438139906479	37492596.402736105
2378.9010410788933	37520906.25103828
2423.1727942376006	37549742.950434454
2468.2684522556924	37579116.30571312
2514.2033481427966	37607721.43168235
2560.9931002584594	37611644.62980329
2608.6536176225477	37615640.83930881
2657.2011053245064	37619711.418953225
2706.652070033241	37623857.75277744
2757.0233256095826	37628081.25057965
2808.3319988231724	37632383.34839463
2860.5955351757416	37636765.50898196
2913.831704832789	37641229.222323455
2968.0586086656026	37645776.00612979
3023.2946844057765	37650407.40635641
3079.5587129142264	37655124.99772933
3136.8698245668766	37659930.38428039
3195.2475057592133	37652865.77508538
3254.711605531848	37636281.77938037
3315.282342319423	37619389.15269343
3376.9803108250912	37602182.151349455
3439.8264890229243	37584654.92478261
3503.8422452906757	37566801.51354699
3569.0493456752292	37548615.84729039
3635.4699612933177	37530091.742690384
3703.126675869927	37511222.90135175
3772.0424934169973	37492002.907665215
3842.240846055061	37472425.226625726
3913.745601980384	37452483.20161085
3986.581073580439	37431011.356383935
4060.7720257003657	37394716.78734241
4136.343684063274	37357746.7701953
4213.321743847289	37320088.734738424
4291.732378422157	37281729.87683395
4371.602248248501	37242657.15405689
4452.958509942655	37202857.2812605
4535.828825510186	37162316.72605916
4620.241371751313	37121021.70422731
4706.224849841281	37078958.17501257
4793.808495089106	37036111.83636181
4883.02208687788	36992468.12005815
4973.895958790063	36948012.1867679
5066.461008921268	36897231.936516
5160.7487103859075	36841611.333116546
5256.791122018419	36784955.62082364
5354.620899273607	36727245.53608467
5454.271305329836	36668461.45684898
5555.7762223988775	36608583.39589628
5659.170163246242	36547590.99404061
5764.488282925873	36485463.513208196
5871.766390733255	36422179.82938611
5981.040962380945	36357718.42544003
6092.349152400711	36292057.383797996
6205.7288067765	36225174.378998406
6321.218475812449	36156752.226116456
6438.8574272404185	36084382.15563187
6558.685659571435	36010665.265821345
6680.743915695614	35935576.49214811
6805.073696735206	35859090.30361999
6931.717276155407	35781180.69410876
7060.717714137772	35701821.17350779
7192.118872221193	35620984.75872491
7325.96542821523	35538643.96450814
7462.302891391108	35454770.794100195
7601.17761795533	35369336.72971942
7742.636826811269	35282312.72286346
7886.728615614156	35193669.18443221
8033.501977124735	35105499.09010933
8183.00681586739	35017043.767531514
8335.293965098195	34926942.276349336
8490.415204088747	34835163.98108494
8648.423275731726	34741677.67612905
8809.37190447399	34646451.57513067
8973.31581458352	34549453.300189435
9140.310748756232	34450649.8708467
9310.413487069076	34350007.69287192
9483.681866285926	34247492.54684014
9660.174799522645	34143069.57649715
9839.952296278227	34036703.27690789
10023.075482838643	33929564.76198412
10209.606623060476	33828961.70326861
10399.609139541202	33726486.40451218
10593.1476351837	33622104.02300915
10790.287915161836	33515779.067625042
10991.097009294961	33407475.386729397
11195.643194838794	33297156.155903775
11403.99601970033	33184783.86542101
11616.22632608502	33070320.307491537
11832.40627458378	32953726.563272357
12052.609368708414	32834962.989634126
12276.910479883603	32713989.205682144
12505.385872903913	32590764.079026416
12738.113231864783	32475157.96653533
12975.171686575868	32363088.965930544
13216.641839466038	32248934.34215531
13462.60579298911	32132655.28140749
13713.147177539455	32014212.247553613
13968.351179887397	31893564.968685925
14228.30457214352	31770672.423429642
14493.09574126215	31645492.82699523
14762.81471909391	31517983.616971135
15037.553212997384	31388101.438852027
15317.404637020798	31255802.131297894
15602.46414366368	31121040.711118665
15892.828656229764	30986880.84645545
16188.596901781993	30868008.047020506
16489.86944471065	30746923.004561197
16796.74872092653	30623584.548858374
17109.339072690134	30497950.74350813
17427.746784089173	30369978.871663
17752.08011717636	30239625.421507627
18082.44934877952	30106846.07146445
18418.96680799711	29971595.67512377
18761.746914391195	29833828.245893534
19110.90621689136	29693496.941363376
19466.56343342263	29550554.047377683
19828.83949127071	29404950.961812336
20197.857568198782	29273462.094886743
20573.743134329114	29148176.210563306
20956.623994804308	29020558.734614447
21346.630333242454	28890566.275723293
21743.8947560008	28758154.6350532
22148.55233726359	28623278.791219607
22560.74066496859	28485892.884982336
22980.599887588487	28345950.203652952
23408.272761782944	28203403.165211935
23843.904700937208	28058203.30213033
24287.643824604504	27910301.24489014
24739.64100886812	27759646.70519827
25200.049937640895	27611268.108976938
25669.027154919517	27484297.10174288
26146.732118010917	27354963.142459344
26633.327251749808	27223222.256186597
27128.978003724646	27089029.649603814
27633.852900531667	26952339.69577885
28148.123605075813	26813105.918654572
28671.964974937695	26671280.97724658
29205.55512182745	26526816.6495466
29749.075472144435	26379663.816126652
30302.71082866393	26229772.443437852
30866.649433372742	26077091.56679838
31441.08303147265	25921569.27306509
32026.206936576502	25785207.263853904
32622.220097116733	25656425.141749583
33229.325163989684	25525246.362439886
33847.72855945983	25391626.32372635
34477.640547344636	25255519.593356106
35119.275304507275	25116879.893574324
35772.850993678774	24975660.085389204
36438.58983763541	24831812.15254439
37116.71819475767	24685287.185192727
37807.466635993485	24536035.36326656
38511.070023255685	24384005.939538267
39227.76758927723	24229147.222365636
39957.803018952654	24078205.41048807
40701.42453219439	23951902.08810918
41458.88496832911	23823248.23940956
42230.441872066716	23692200.120694403
43016.35758106799	23558713.17419133
43816.89931514194	23422742.01290026
44632.33926710397	23284240.405161247
45462.95469532399	23143161.258935336
46309.02801799736	22999456.605792698
47170.84690917023	22853077.584602855
48048.704396551344	22703974.424921427
48942.89896114532	22552096.43006754
49853.73463873894	22397391.959886454
50781.5211232767	22265044.446803123
51726.57387216024	22140511.14158737
52689.21421350677	22013660.250371486
53669.76945540476	21884448.64248563
54668.57299720181	21752832.384590898
55685.96444286408	21618766.725741457
56722.28971644549	21482206.082168743
57777.90117970507	21343104.021782536
58853.1577519145	21201413.248383503
59948.42503189408	21057085.585581973
61064.07542232036	20910071.960417498
62200.48825634718	20760322.386673443
63358.04992658254	20615838.40788923
64537.15401646702	20496658.918757435
65738.20143409586	20375261.479053788
66961.60054853215	20251604.81234076
68207.76732865692	20125646.874019273
69477.1254846024	19997344.837033127
70770.10661181889	19866655.07730733
72087.15033782135	19733533.15891538
73428.70447166759	19597933.818970665
74795.22515621828	19459810.952236533
76187.17702322999	19319117.59545006
77605.0333513357	19175805.911353968
79049.2762269642	19029827.172431514
80520.39670825469	18907571.770279493
82018.8949920221	18792539.13314367
83545.28058382872	18675365.71905727
85100.07247122246	18556011.68779698
86683.79930019773	18434436.45770613
88296.99955494082	18310598.691896535
89940.22174092053	18184456.28419347
91614.0245713852	18055966.344819184
93318.9771573324	17925085.185809817
95055.65920101192	17791768.30616107
96824.66119303115	17655970.37669739
98626.5846131283	17517645.22465955
100462.04213468132	17385508.33964271
102331.65783302448	17277443.597999554
104236.06739764012	17167367.75312655
106175.9183482999	17055243.378050394
108151.87025522892	16941032.349275433
110164.59496336569	16824695.833821293
112214.77682079801	16706194.276019203
114303.11291144785	16585487.384062659
116430.31329208757	16462534.116307808
118597.10123376705	16337292.667318797
120804.21346773289	16209720.453653526
123052.40043592616	16079774.099384774
125342.42654613995	15947409.421351934
127675.07043192645	15838616.541190939
130051.12521734099	15735983.354425438
132471.39878661174	15631440.146590598
134936.71405883064	15524951.3718693
137447.90926775365	15416480.822930736
140005.8382468096	15305991.618619507
142611.37071941295	15193446.191415645
145265.39259467812	15078806.274661249
147968.80626863963	14962032.889549393
150722.53093107554	14843086.331870904
153527.5028780421	14721926.15851456
156384.67583022476	14598511.173715914
159295.0212572123	14481763.67035064
162259.5287078087	14386695.54846435
165279.2061464897	14289858.192653341
168355.08029612005	14191218.677173253
171488.19698705408	14090743.46352595
174679.62151272455	13988398.389056241
177930.43899185772	13884148.655336013
181241.75473742394	13777958.816332527
184614.69463245454	13669792.766356373
188050.40551285836	13559613.727785042
191550.0555573528	13447384.238558283
195114.83468466165	13333066.139440503
198745.9549580986	13216620.561046217
202444.65099768018	13122511.173353078
206212.18039991445	13033323.567255436
210049.8241653915	12942476.164632529
213958.88713434213	12849938.076388573
217940.6984302958	12755677.838576486
221996.61191199525	12659663.40169979
226128.00663372793	12561862.119815374
230336.2873142131	12462240.739433622
234622.88481422624	12360765.388211794
238989.25662310526	12257401.563437078
243436.8873543108	12152114.12029535
247967.289250216	12044867.259921454
252582.00269627848	11944381.729961688
257282.59674479323	11862649.016179465
262070.66964838552	11779395.242686443
266947.8494034318	11694592.102302603
271915.7943036019	11608210.761046441
276976.1935036891	11520221.848331213
282130.76759394706	11430595.446978508
287381.2691851069	11339301.083046159
292729.4835042813	11246307.715466756
298177.22900196735	11151583.725493317
303726.3579703311	11055096.905948622
309378.75717301364	10956814.45027439
315136.34848664823	10856702.941376707
321001.08955431683	10777029.322075436
326974.97445117676	10701066.964251108
333060.03436245886	10623690.93402223
339258.33827409917	10544874.9227048
345571.9936762143	10464592.132005721
352003.1472796675	10382815.26491116
358553.9857459817	10299516.516405124
365226.7364308175	10214667.564015625
372023.6681413066	10128239.558184598
378947.09190746717	10040203.11245881
385999.36176797637	9950528.293498153
393182.87557057705	9859184.610897912
400500.07578736113	9774401.62511628
407953.45034524484	9705356.481308993
415545.53347188793	9635026.39562701
423278.90655735444	9563387.455083411
431156.19903182285	9490415.301666493
439180.0892596086	9416085.124057835
447353.3054498463	9340371.649196167
455678.6265841068	9263249.133684205
464158.8833612772	9184691.355035732
472796.9591600391	9104671.602759512
481595.79101923504	9023162.669277608
490558.37063650455	8940136.840674369
499687.7453854889	8855565.887273477
508987.0193519675	8789212.91464732
518459.3543892913	8725500.846531263
528107.971193433	8660603.085986586
537936.1503980698	8594497.567075426
547947.2336900292	8527161.813209077
558144.6249454955	8458572.92950571
568531.7913873753	8388707.595005797
579112.2647641759	8317542.054742845
589889.6425508494	8245052.111666355
600867.5891719692	8171213.11841461
612049.837247669	8095999.968934323
623440.1888627863	8019387.089944218
635042.5168595961	7948933.547118153
646860.7661546321	7891386.024800031
658898.9550799957	7832767.533299507
671161.1767496272	7773058.141697887
683651.6004510238	7712237.548158634
696374.4730628222	7650285.073024636
709334.1204987989	7587179.65178681
722534.9491787221	7522899.827921979
735981.4475265755	7457423.745597442
749678.1874966878	7390729.14223968
763629.8261282243	7322793.340964954
777841.1071286482	7253593.242868826
792316.8624866261	7183105.319172303
807062.0141149492	7128537.8771623075
822081.575524054	7075727.5166923115
837380.6535266489	7021934.346427981
852964.4499741016	6967140.0761118
868838.2635251193	6911326.075101457
885007.4914473438	6854473.366035232
901477.6314524917	6796562.618379454
918254.2835656281	6737574.141855947
935343.1520292377	6677487.879747091
952750.0472427299	6616283.4020763505
970480.8877380306	6553939.898661852
988541.7021919573	6490436.172040691
1006938.6314760271	6432570.835358733
1025677.9307444209	6385100.947445076
1044765.9715608053	6336747.6368400585
1064209.2440647245	6287494.46289708
1084014.359178331	6237324.6790063
1104188.0508541602	6186221.226900623
1124737.1783647507	6134166.730855705
1145668.7286348727	6081143.491781995
1166989.8186171474	6027133.4812069135
1188707.6977119034	5972118.335144903
1210829.7502320393	5916079.347853526
1233363.4979137746	5858997.465473281
1256316.6024741214	5800853.279549114
1279696.8682159416	5756412.03680366
1303512.2446815087	5713035.228542438
1327770.829355429	5668851.170498647
1352480.8704178738	5623844.839616479
1377650.769549055	5578000.933258498
1403289.084785873	5531303.86400258
1429404.533431761	5483737.75434203
1456005.9950206485	5435286.431287033
1483102.514336103	5385933.420865698
1510703.3044866556	5335661.942522713
1538817.7500383465	5284454.903413776
1567455.410205595	5232294.892593843
1596626.022101425	5185195.936733723
1626339.5040481905	5146351.927406324
1656605.9589499151	5106785.024455802
1687435.6777273756	5066481.774708831
1718839.1428171454	5025428.474626226
1750827.0317357269	4983611.1656436175
1783410.220710006	4941015.629425385
1816599.7883753285	4897627.3830302395
1850407.019542302	4853431.673986912
1884843.4090337954	4808413.475278128
1919920.6655932867	4762557.480231251
1955650.715865947	4715848.097313889
1992045.7084538713	4668269.444832546
2029118.0180466783	4632347.019905995
2066880.2496290822	4596969.821564572
2105345.242766708	4560934.247542371
2144526.0759716653	4524228.045355955
2184436.0711494284	4486838.734501064
2225088.7981283693	4448753.602209151
2266498.079273693	4409959.699124876
2308677.994187172	4370443.8349031815
2351642.884494346	4330192.57372447
2395407.358720879	4289192.229726221
2439986.29725955	4247428.862349714
2485394.857429798	4204888.271600048
2531648.478631358	4166820.470653495
2578762.8875937983	4135232.734283214
2626754.1037238385	4103057.1447642334
2675638.4445520453	4070282.7620494384
2725432.531281028	4036898.4424955635
2776153.2944368036	4002892.835074247
2827817.979625338	3968254.3775125705
2880444.1533962977	3932971.292361722
2934049.709215787	3897031.5829925924
2988652.873550383	3860423.0295167468
3044272.2120643063	3823133.184631547
3100926.6359319235	3785149.369387954
3158635.408267819	3746458.668879495
3217418.1506763715	3717592.212709254
3277294.849923382	3688898.0012511355
3338285.8647317644	3659669.7856352837
3400411.9327037027	3629897.627953475
3463694.1773717343	3599571.405351288
3528154.1153808828	3568680.806586291
3593813.6638046256	3537215.3285220577
3660695.147596906	3505164.2725570044
3728821.30718283	3472516.7409867733
3798215.306190736	3439261.633298836
3868900.7393279755	3405387.6423982778
3940901.6404034477	3370883.250763199
4014242.490499326	3340282.8476935704
4088948.226294856	3314720.8097143234
4165044.248545185	3288683.057858742
4242556.430717777	3262160.7390106507
4321511.127789762	3235144.8352958676
4401935.1852088785	3207626.161016032
4483855.948021181	3179595.3595253862
4567301.270168747	3151042.900049386
4652299.523960189	3121959.074444171
4738879.609717651	3092333.9938956536
4827070.965603188	3062157.585557241
4916903.577628021	3031419.589124961
5008407.989848212	3000109.5533488165
5101615.314749833	2977019.63274969
5196557.243827657	2953846.1435133824
5293266.058360566	2930241.391699275
5391774.640387494	2906197.351437425
5492116.483887789	2881705.847495057
5594325.706169377	2856758.552496951
5698437.0594691355	2831346.984093998
5804485.942768984	2805462.5020791325
5912508.413831869	2779096.3054495775
6022541.201461928	2752239.4294143734
6134621.717992506	2724882.7423463007
6248788.072006888	2697016.942676988
6365079.081295578	2672524.43385941
6483534.286054714	2651917.5089215883
6604193.962330305	2630927.0856042756
6727099.135712336	2609546.0269373856
6852291.595284057	2587767.0631305887
6979813.907830667	2565582.7891015247
7109709.432312423	2542985.661957998
7242022.334607315	2519967.998433289
7376797.60252773	2496521.9722737945
7514081.061116962	2472639.611577991
7653919.388230155	2448312.7960859085
7796360.130405221	2423533.2544181724
7941451.71902934	2398292.5612636055
8089243.486805938	2379889.986258178
8239785.684528512	2361238.296299779
8393129.498166373	2342239.4952175575
8549327.066268368	2322887.123214439
8708431.497690724	2303174.600275417
8870496.889654402	2283095.223930299
9035578.34613892	2262642.1669747713
9203731.99661823	2241808.475149088
9375015.01514529	2220587.0647735572
9549485.639791967	2198970.7203399856
9727203.192450536	2176952.092058356
9908228.099003786	2154523.6933578034
10092621.909870483	2134986.003834386
10280447.320933098	2118423.4603826483
10471768.194855202	2101552.6851790585
10666649.582795387	2084367.941978267
10865157.746525371	2066863.3877824214
11067360.180959744	2049033.070854484
11273325.63710487	2030870.9286945865
11483124.14543511	2012370.785978695
11696827.039703846	1993526.3524589513
11914506.981197748	1974331.2208249127
12136237.983442418	1954778.8645249954
12362095.437367693	1934862.6355473883
12592156.13694151	1914649.6396534361
12826498.3052806	1899950.9000840953
13065201.621247198	1884978.6144702905
13308347.24654076	1869727.692073587
13556017.853293689	1854192.9474160473
13808297.652180923	1838369.0985171017
14065272.421052363	1822250.7650976232
14327029.534098294	1805832.4667505778
14593657.991557576	1789108.6210776202
14865248.449978571	1772073.5417910286
15141893.25304352	1754721.436780293
15423686.462966273	1737046.406142744
15710723.892474487	1719042.440177518
16003103.137387017	1703498.720230297
16300923.609797413	1690218.234760402
16604286.571875297	1676690.5971961585
16913295.17029647	1662911.2079950366
17228054.471313924	1648875.3820162362
17548671.49648152	1634578.3469276892
17875255.259042352	1620015.24158342
18207916.800994623	1605181.1143706944
18546769.230846975	1590070.9215264244
18891927.762076646	1574679.5254222327
19243509.75230332	1559001.692817603
19601634.743191857	1543032.093080525
19966424.501097932	1526943.400763244
20338003.0584698	1515169.024983261
20716496.75602067	1503175.5260665328
21102034.285685964	1490958.8260941969
21494746.734379806	1478514.7712566324
21894767.628566206	1465839.1304411106
