# Frequency (Hz)	Imaginary Part (Ohm/m)
1000.0	26116290.23070054
1018.6101701559753	26077830.37197472
1037.566678745186	26038654.768733833
1056.875971184804	25998750.100850675
1076.5446128423157	25958102.800308194
1096.5792912678098	25916699.046586234
1116.9868184678226	25874524.76196241
1137.7741332214914	25831565.606725536
1158.9483034398106	25787806.974299945
1180.5165285688054	25743233.986279115
1202.4861420374123	25697831.487366863
1224.8646137509306	25651584.040224347
1247.6595526308697	25604475.92022123
1270.8787092020582	25558781.39960104
1294.529978227916	25514435.24110387
1318.6214013947485	25469263.793051302
1343.1611700460153	25423251.69666429
1368.1576279674719	25376383.307334274
1393.619274224142	25328642.689303897
1419.5547660501015	25280013.610248618
1445.9729217920194	25230479.535757594
1472.882723907502	25180023.623711776
1500.2933220192183	25128628.718557406
1528.2140360258693	25076277.345472965
1556.654359271062	25022951.70442752
1585.6239617711371	24968774.65500793
1615.132693503091	24919138.990784097
1645.1905877536624	24868579.59840326
1675.807864530767	24817079.287127234
1706.9949340384078	24764620.54629527
1738.7624002162504	24711185.53937026
1771.1210643450886	24656756.097874086
1804.0819287193826	24601313.715210177
1837.6562003881704	24544839.54037104
1871.8552949655793	24487314.371528726
1906.690840512252	24428718.649506006
1942.1746814890264	24369032.45112603
1978.3188827841643	24308235.48243824
2015.1357338155585	24250102.629945423
2052.6377527092523	24194184.105058074
2090.8376905557498	24137224.926907703
2129.748535745521	24079205.728760004
2169.3835183851843	24020106.78346247
2209.756114795903	23959907.9967369
2250.880052095462	23898588.900347188
2292.7693128656488	23836128.645139858
2335.438139906479	23772505.99395513
2378.9010410788933	23707699.314406082
2423.1727942376006	23641686.571523376
2468.2684522556924	23574445.320263166
2514.2033481427966	23506383.02851808
2560.9931002584594	23445306.197990365
2608.6536176225477	23383092.717253946
2657.2011053245064	23319721.43305502
2706.652070033241	23255170.79847416
2757.0233256095826	23189418.865600068
2808.3319988231724	23122443.278067105
2860.5955351757416	23054221.263453856
2913.831704832789	22984729.62554027
2968.0586086656026	22913944.736420702
3023.2946844057765	22841842.528470144
3079.5587129142264	22768398.486160997
3136.8698245668766	22693587.637727544
3195.2475057592133	22623231.469516546
3254.711605531848	22556155.680317838
3315.282342319423	22487831.599268805
3376.9803108250912	22418235.995445687
3439.8264890229243	22347345.20559332
3503.8422452906757	22275135.126079302
3569.0493456752292	22201581.20469856
3635.4699612933177	22126658.43232528
3703.126675869927	22050341.334409572
3772.0424934169973	21972603.96231585
3842.240846055061	21893419.884499975
3913.745601980384	21812762.177522313
3986.581073580439	21731518.93322742
4060.7720257003657	21660159.8364786
4136.343684063274	21587472.734797113
4213.321743847289	21513432.913785182
4291.732378422157	21438015.199105907
4371.602248248501	21361193.94792368
4452.958509942655	21282943.04018535
4535.828825510186	21203235.869739152
4620.241371751313	21122045.335288297
4706.224849841281	21039343.83117626
4793.808495089106	20955103.238000542
4883.02208687788	20869294.91305178
4973.895958790063	20781889.680574924
5066.461008921268	20701197.25460278
5160.7487103859075	20624912.69492381
5256.791122018419	20547208.46660894
5354.620899273607	20468058.14938329
5454.271305329836	20387434.83128617
5555.7762223988775	20305311.099520728
5659.170163246242	20221659.03113329
5764.488282925873	20136450.18351926
5871.766390733255	20049655.58475233
5981.040962380945	19961245.723733734
6092.349152400711	19871190.540158115
6205.7288067765	19779459.414292727
6321.218475812449	19687625.482224215
6438.8574272404185	19608655.33058499
6558.685659571435	19528215.53098652
6680.743915695614	19446278.733030207
6805.073696735206	19362817.0773219
6931.717276155407	19277802.18599935
7060.717714137772	19191205.1530835
7192.118872221193	19102996.53465008
7325.96542821523	19013146.338818397
7462.302891391108	18921624.01555374
7601.17761795533	18828398.446280047
7742.636826811269	18733437.933299292
7886.728615614156	18636710.18901386
8033.501977124735	18549178.268887285
8183.00681586739	18467038.394125048
8335.293965098195	18383369.88231689
8490.415204088747	18298144.285267293
8648.423275731726	18211332.625354957
8809.37190447399	18122905.385680128
8973.31581458352	18032832.500028532
9140.310748756232	17941083.34264851
9310.413487069076	17847626.717837986
9483.681866285926	17752430.849337533
9660.174799522645	17655463.369526144
9839.952296278227	17556691.308415864
10023.075482838643	17458522.287216514
10209.606623060476	17375773.216834024
10399.609139541202	17291484.172171477
10593.1476351837	17205626.494045474
10790.287915161836	17118170.989920348
10991.097009294961	17029087.92398238
11195.643194838794	16938347.007029276
11403.99601970033	16845917.38617158
11616.22632608502	16751767.634342268
11832.40627458378	16655865.73961127
12052.609368708414	16558179.094301049
12276.910479883603	16458674.483899625
12505.385872903913	16357318.075767338
12738.113231864783	16267491.882758556
12975.171686575868	16183693.613526585
13216.641839466038	16098335.844245426
13462.60579298911	16011389.552353803
13713.147177539455	15922825.175175657
13968.351179887397	15832612.599868467
14228.30457214352	15740721.1531846
14493.09574126215	15647119.59104207
14762.81471909391	15551776.08790119
15037.553212997384	15454658.2259436
15317.404637020798	15355732.984049799
15602.46414366368	15254966.72657163
15892.828656229764	15155634.997387888
16188.596901781993	15073384.145110631
16489.86944471065	14989602.59047703
16796.74872092653	14904261.846855767
17109.339072690134	14817332.897474473
17427.746784089173	14728786.185553715
17752.08011717636	14638591.604257347
18082.44934877952	14546718.486455917
18418.96680799711	14453135.594299443
18761.746914391195	14357811.10859625
19110.90621689136	14260712.61799409
19466.56343342263	14161807.107959922
19828.83949127071	14061060.949554667
20197.857568198782	13973639.337833513
20573.743134329114	13892405.588513993
20956.623994804308	13809660.065297231
21346.630333242454	13725374.63381375
21743.8947560008	13639520.6361087
22148.55233726359	13552068.880897788
22560.74066496859	13462989.633641966
22980.599887588487	13372252.606437344
23408.272761782944	13279826.947716985
23843.904700937208	13185681.231761074
24287.643824604504	13089783.448011769
24739.64100886812	12992100.990189306
25200.049937640895	12896667.881898893
25669.027154919517	12818810.631217198
26146.732118010917	12739504.443852453
26633.327251749808	12658722.354846422
27128.978003724646	12576436.897418438
27633.852900531667	12492620.093626354
28148.123605075813	12407243.44485376
28671.964974937695	12320277.922120174
29205.55512182745	12231693.95621081
29749.075472144435	12141461.427622773
30302.71082866393	12049549.656324128
30866.649433372742	11955927.391322257
31441.08303147265	11860562.800038323
32026.206936576502	11779501.896343792
32622.220097116733	11704308.469077438
33229.325163989684	11627715.679335063
33847.72855945983	11549697.484742844
34477.640547344636	11470227.358274011
35119.275304507275	11389278.279229274
35772.850993678774	11306822.724049538
36438.58983763541	11222832.656957619
37116.71819475767	11137279.52042569
37807.466635993485	11050134.225465534
38511.070023255685	10961367.141737875
39227.76758927723	10870948.087477786
39957.803018952654	10783440.591198228
40701.42453219439	10712852.030187018
41458.88496832911	10640949.804044332
42230.441872066716	10567709.465238541
43016.35758106799	10493106.111265281
43816.89931514194	10417114.37618038
44632.33926710397	10339708.421975102
45462.95469532399	10260861.929790977
46309.02801799736	10180548.090971107
47170.84690917023	10098739.597944906
48048.704396551344	10015408.634943297
48942.89896114532	9930526.868540965
49853.73463873894	9844065.438022746
50781.5211232767	9771997.481945943
51726.57387216024	9705105.262274252
52689.21421350677	9636968.16701237
53669.76945540476	9567563.02881373
54668.57299720181	9496866.249183517
55685.96444286408	9424853.790454902
56722.28971644549	9351501.167615991
57777.90117970507	9276783.43998467
58853.1577519145	9200675.20272846
59948.42503189408	9123150.578226643
61064.07542232036	9044183.207271568
62200.48825634718	8963746.24010624
63358.04992658254	8886646.241789805
64537.15401646702	8824915.893137459
65738.20143409586	8762036.732192904
66961.60054853215	8697987.379363908
68207.76732865692	8632746.057180375
69477.1254846024	8566290.582889814
70770.10661181889	8498598.36091491
72087.15033782135	8429646.375170816
73428.70447166759	8359411.181239431
74795.22515621828	8287868.89839804
76187.17702322999	8214995.201499628
77605.0333513357	8140765.312702044
79049.2762269642	8065153.993043277
80520.39670825469	8003258.672038575
82018.8949920221	7945644.101075
83545.28058382872	7886957.313142335
85100.07247122246	7827178.354100336
86683.79930019773	7766286.89845882
88296.99955494082	7704262.242466768
89940.22174092053	7641083.2970728325
91614.0245713852	7576728.580754847
93318.9771573324	7511176.212215844
95055.65920101192	7444403.9029442035
96824.66119303115	7376388.94963531
98626.5846131283	7307108.22647218
100462.04213468132	7241337.29493034
102331.65783302448	7188873.162124396
104236.06739764012	7135432.662879846
106175.9183482999	7080997.626851135
108151.87025522892	7025549.545539477
110164.59496336569	6969069.565999793
112214.77682079801	6911538.48443047
114303.11291144785	6852936.739643883
116430.31329208757	6793244.4064153815
118597.10123376705	6732441.188708484
120804.21346773289	6670506.412774037
123052.40043592616	6607419.020120877
125342.42654613995	6543157.560355745
127675.07043192645	6491407.196621359
130051.12521734099	6443002.657307876
132471.39878661174	6393697.301281453
134936.71405883064	6343474.364189777
137447.90926775365	6292316.7696930915
140005.8382468096	6240207.123658052
142611.37071941295	6187127.708243527
145265.39259467812	6133060.475876365
147968.80626863963	6077987.043114987
150722.53093107554	6021888.684398846
153527.5028780421	5964746.325681526
156384.67583022476	5906540.537945358
159295.0212572123	5851803.079746107
162259.5287078087	5808157.700915316
165279.2061464897	5763700.074157957
168355.08029612005	5718415.083401923
171488.19698705408	5672287.331262398
174679.62151272455	5625301.133806648
177930.43899185772	5577440.515221264
181241.75473742394	5528689.20238023
184614.69463245454	5479030.619311909
188050.40551285836	5428447.88156297
191550.0555573528	5376923.790457574
195114.83468466165	5324440.8272495745
198745.9549580986	5270981.147165979
202444.65099768018	5228559.118791623
206212.18039991445	5188624.5304550035
210049.8241653915	5147946.752634335
213958.88713434213	5106511.954446856
217940.6984302958	5064306.047614726
221996.61191199525	5021314.6816748725
226128.00663372793	4977523.23909963
230336.2873142131	4932916.830326692
234622.88481422624	4887480.288696442
238989.25662310526	4841198.165295149
243436.8873543108	4794054.723702189
247967.289250216	4746033.934639435
252582.00269627848	4701288.807970523
257282.59674479323	4665529.581843355
262070.66964838552	4629104.87043331
266947.8494034318	4592002.288946051
271915.7943036019	4554209.22210408
276976.1935036891	4515712.819857468
282130.76759394706	4476499.993014653
287381.2691851069	4436557.408791993
292729.4835042813	4395871.486280488
298177.22900196735	4354428.3918280825
303726.3579703311	4312214.034336132
309378.75717301364	4269214.06046823
315136.34848664823	4225413.849769941
321001.08955431683	4191117.562680803
326974.97445117676	4158586.3706868966
333060.03436245886	4125449.767674611
339258.33827409917	4091696.4868418756
345571.9936762143	4057315.0517095164
352003.1472796675	4022293.772219146
358553.9857459817	3986620.740758371
365226.7364308175	3950283.8281121366
372023.6681413066	3913270.6793386117
378947.09190746717	3875568.7095683995
385999.36176797637	3837165.0997255566
393182.87557057705	3798046.792168926
400500.07578736113	3761923.2883054377
407953.45034524484	3732931.149254937
415545.53347188793	3703399.4615635183
423278.90655735444	3673318.184139175
431156.19903182285	3642677.089023449
439180.0892596086	3611465.757913857
447353.3054498463	3579673.5786215216
455678.6265841068	3547289.7414629227
464158.8833612772	3514303.2355845063
472796.9591600391	3480702.8452188335
481595.79101923504	3446477.1458711526
490558.37063650455	3411614.5004349044
499687.7453854889	3376103.0552349957
508987.0193519675	3348636.2013422367
518459.3543892913	3322362.9339232114
528107.971193433	3295600.7165269675
537936.1503980698	3268340.4497112283
547947.2336900292	3240572.864691548
558144.6249454955	3212288.5201898366
568531.7913873753	3183477.7992241923
579112.2647641759	3154130.9058390637
589889.6425508494	3124237.8617744893
600867.5891719692	3093788.503073389
612049.837247669	3062772.4766257284
623440.1888627863	3031179.2366483076
635042.5168595961	3002260.6730523943
646860.7661546321	2978919.249798779
658898.9550799957	2955143.438686728
671161.1767496272	2930925.1556842905
683651.6004510238	2906256.166314287
696374.4730628222	2881128.0828545345
709334.1204987989	2855532.361485902
722534.9491787221	2829460.2993873325
735981.4475265755	2802903.0317767966
749678.1874966878	2775851.5288971444
763629.8261282243	2748296.5929459305
777841.1071286482	2720228.854948028
792316.8624866261	2691638.771570088
807062.0141149492	2669778.60914016
822081.575524054	2648680.0445808084
837380.6535266489	2627188.8321449626
852964.4499741016	2605297.6645888267
868838.2635251193	2582999.0986795565
885007.4914473438	2560285.552664483
901477.6314524917	2537149.3036932233
918254.2835656281	2513582.4851918374
935343.1520292377	2489577.084188106
952750.0472427299	2465124.93858703
970480.8877380306	2440217.7343956414
988541.7021919573	2414847.002896142
1006938.6314760271	2391824.9507803777
1025677.9307444209	2373119.404675834
1044765.9715608053	2354065.7451754217
1064209.2440647245	2334657.493829615
1084014.359178331	2314888.051623832
1104188.0508541602	2294750.6967347115
1124737.1783647507	2274238.582244613
1145668.7286348727	2253344.733813593
1166989.8186171474	2232062.047308061
1188707.6977119034	2210383.286385284
1210829.7502320393	2188301.080032964
1233363.4979137746	2165807.9200630076
1256316.6024741214	2142896.1585586625
1279696.8682159416	2125569.497235951
1303512.2446815087	2108689.4528422533
1327770.829355429	2091495.2679501483
1352480.8704178738	2073981.0963515078
1377650.769549055	2056140.9830392736
1403289.084785873	2037968.8621826994
1429404.533431761	2019458.5550648891
1456005.9950206485	2000603.7679819767
1483102.514336103	1981398.0901031967
1510703.3044866556	1961834.9912911297
1538817.7500383465	1941907.8198813943
1567455.410205595	1921609.8004209963
1596626.022101425	1903348.6638473708
1626339.5040481905	1888403.189394393
1656605.9589499151	1873179.5771187819
1687435.6777273756	1857672.6508283347
1718839.1428171454	1841877.1380010261
1750827.0317357269	1825787.6679922985
1783410.220710006	1809398.7702089928
1816599.7883753285	1792704.8722492673
1850407.019542302	1775700.2980079465
1884843.4090337954	1758379.2657465648
1919920.6655932867	1740735.8861275197
1955650.715865947	1722764.1602116418
1992045.7084538713	1704457.9774184683
2029118.0180466783	1690761.3753031134
2066880.2496290822	1677288.9499271424
2105345.242766708	1663565.8004225092
2144526.0759716653	1649587.2607705218
2184436.0711494284	1635348.5781170758
2225088.7981283693	1620844.9111566541
2266498.079273693	1606071.328486213
2308677.994187172	1591022.8069284603
2351642.884494346	1575694.2298239253
2395407.358720879	1560080.3852912223
2439986.29725955	1544175.9644549782
2485394.857429798	1527975.55964074
2531648.478631358	1513525.1407525495
2578762.8875937983	1501607.0395233931
2626754.1037238385	1489467.1404024228
2675638.4445520453	1477101.3156931363
2725432.531281028	1464505.360881891
2776153.2944368036	1451674.9932083301
2827817.979625338	1438605.8502092035
2880444.1533962977	1425293.4882350673
2934049.709215787	1411733.3809394161
2988652.873550383	1397920.9177396593
3044272.2120643063	1383851.4022494806
3100926.6359319235	1369520.0506820206
3158635.408267819	1354921.9902233218
3217418.1506763715	1344113.8469830593
3277294.849923382	1333377.8395454464
3338285.8647317644	1322442.0331826224
3400411.9327037027	1311302.709602596
3463694.1773717343	1299956.0813153205
3528154.1153808828	1288398.2903449233
3593813.6638046256	1276625.40691794
3660695.147596906	1264633.4281271526
3728821.30718283	1252418.2765705641
3798215.306190736	1239975.7989650243
3868900.7393279755	1227301.7647340847
3940901.6404034477	1214391.8645695446
4014242.490499326	1202974.607236205
4088948.226294856	1193482.4803272071
4165044.248545185	1183813.7033212888
4242556.430717777	1173964.9887300911
4321511.127789762	1163932.9878845338
4401935.1852088785	1153714.2897962346
4483855.948021181	1143305.4199977417
4567301.270168747	1132702.8393611652
4652299.523960189	1121902.9428948506
4738879.609717651	1110902.0585176311
4827070.965603188	1099696.4458102845
4916903.577628021	1088282.2947437542
5008407.989848212	1076655.7243836874
5101615.314749833	1068136.6898762966
5196557.243827657	1059589.8155222484
5293266.058360566	1050883.8823821687
5391774.640387494	1042015.9303449874
5492116.483887789	1032982.9442114574
5594325.706169377	1023781.8526689667
5698437.0594691355	1014409.5272472496
5804485.942768984	1004862.7812546762
5912508.413831869	995138.3686947471
6022541.201461928	985232.9831624087
6134621.717992506	975143.2567198541
6248788.072006888	964865.7587513763
6365079.081295578	955854.1038501579
6483534.286054714	948300.1470099941
6604193.962330305	940605.6097476825
6727099.135712336	932767.8758376484
6852291.595284057	924784.2803659114
6979813.907830667	916652.1088239881
7109709.432312423	908368.5961859338
7242022.334607315	899930.9259681941
7376797.60252773	891336.2292719835
7514081.061116962	882581.5838078172
7653919.388230155	873664.0129019066
7796360.130405221	864580.4844840609
7941451.71902934	855327.9100567406
8089243.486805938	848618.2994103204
8239785.684528512	841818.5087349936
8393129.498166373	834892.1727981733
8549327.066268368	827836.9365710128
8708431.497690724	820650.4011971728
8870496.889654402	813330.1231771945
9035578.34613892	805873.6135376754
9203731.99661823	798278.3369849941
9375015.01514529	790541.7110432867
9549485.639791967	782661.1051763709
9727203.192450536	774633.8398933399
9908228.099003786	766457.1858375043
10092621.909870483	759349.0185530848
10280447.320933098	753340.5287068824
10471768.194855202	747220.2198422616
10666649.582795387	740986.0109882632
10865157.746525371	734635.782446704
11067360.180959744	728167.3750714562
11273325.63710487	721578.5895343177
11483124.14543511	714867.1855772119
11696827.039703846	708030.8812504787
11914506.981197748	701067.3521369869
12136237.983442418	693974.2305618064
12362095.437367693	686749.1047871753
12592156.13694151	679416.6100876036
12826498.3052806	674107.7559339833
13065201.621247198	668700.1031012309
13308347.24654076	663191.8129291158
13556017.853293689	657581.01253963
13808297.652180923	651865.7942001845
14065272.421052363	646044.2146749634
14327029.534098294	640114.2945642015
14593657.991557576	634074.0176311661
14865248.449978571	627921.3301166185
15141893.25304352	621654.1400405087
15423686.462966273	615270.3164906824
15710723.892474487	608767.6888983484
16003103.137387017	603163.4474972924
16300923.609797413	598385.7672664736
16604286.571875297	593519.1735936087
16913295.17029647	588562.0117844116
17228054.471313924	583512.5963504547
17548671.49648152	578369.2104360831
17875255.259042352	573130.1052346679
18207916.800994623	567793.4993939891
18546769.230846975	562357.5784105599
18891927.762076646	556820.4940126748
19243509.75230332	551180.3635319764
19601634.743191857	545435.2692633307
19966424.501097932	539647.887072212
20338003.0584698	535426.9983327035
20716496.75602067	531127.5581355431
21102034.285685964	526748.104624738
21494746.734379806	522287.14873890684
