Frequency [GHz]	Zx imag [Ohm/m]	Zy imag [Ohm/m]
1.000000000000000166e-10	1.184299237840647064e+07	2.890464226529011503e+07
1.032794731918951654e-10	1.184298222859452479e+07	2.890462928865895793e+07
1.066664958279539403e-10	1.184297174592221715e+07	2.890461588646265864e+07
1.101645949633656381e-10	1.184296091947348043e+07	2.890460204474492744e+07
1.137774133221491146e-10	1.184294973797426000e+07	2.890458774909177423e+07
1.175087130904807540e-10	1.184293818978076987e+07	2.890457298461650312e+07
1.213623798344240958e-10	1.184292626286737062e+07	2.890455773594423011e+07
1.253424265461399975e-10	1.184291394481404498e+07	2.890454198719583452e+07
1.294529978227915867e-10	1.184290122279346175e+07	2.890452572197145596e+07
1.336983741824946476e-10	1.184288808355762251e+07	2.890450892333340645e+07
1.380829765218092491e-10	1.184287451342406869e+07	2.890449157378852367e+07
1.426113707194128486e-10	1.184286049826162122e+07	2.890447365526996925e+07
1.472882723907502473e-10	1.184284602347567864e+07	2.890445514911840111e+07
1.521185517986104510e-10	1.184283107399301417e+07	2.890443603606255352e+07
1.571072389247450498e-10	1.184281563424606994e+07	2.890441629619916528e+07
1.622595287078087593e-10	1.184279968815676495e+07	2.890439590897224844e+07
1.675807864530767868e-10	1.184278321911973692e+07	2.890437485315169021e+07
1.730765534195724819e-10	1.184276620998505317e+07	2.890435310681113973e+07
1.787525525904235329e-10	1.184274864304035716e+07	2.890433064730517939e+07
1.846146946324547531e-10	1.184273049999242090e+07	2.890430745124574751e+07
1.906690840512252406e-10	1.184271176194809005e+07	2.890428349447776005e+07
1.969220255479172543e-10	1.184269240939461812e+07	2.890425875205399096e+07
2.033800305846981002e-10	1.184267242217934690e+07	2.890423319820906594e+07
2.100498241653915480e-10	1.184265177948870510e+07	2.890420680633265153e+07
2.169383518385184289e-10	1.184263045982655883e+07	2.890417954894172028e+07
2.240527869300018610e-10	1.184260844099180773e+07	2.890415139765196294e+07
2.314005380130653023e-10	1.184258570005527325e+07	2.890412232314820215e+07
2.389892566231049743e-10	1.184256221333582327e+07	2.890409229515388608e+07
2.468268452255692806e-10	1.184253795637570322e+07	2.890406128239954636e+07
2.549214654451423314e-10	1.184251290391508117e+07	2.890402925259024650e+07
2.632815465648021228e-10	1.184248702986572869e+07	2.890399617237193137e+07
2.719157943036017723e-10	1.184246030728386156e+07	2.890396200729672611e+07
2.808331998823172083e-10	1.184243270834208652e+07	2.890392672178703919e+07
2.900430493863991314e-10	1.184240420430041663e+07	2.890389027909851819e+07
2.995549334359813486e-10	1.184237476547634043e+07	2.890385264128180221e+07
3.093787571730138678e-10	1.184234436121392250e+07	2.890381376914297789e+07
3.195247505759212065e-10	1.184231295985186659e+07	2.890377362220277637e+07
3.300034791125284578e-10	1.184228052869056165e+07	2.890373215865443647e+07
3.408258547423451742e-10	1.184224703395801596e+07	2.890368933532014117e+07
3.520031472796679687e-10	1.184221244077469595e+07	2.890364510760608315e+07
3.635469961293320139e-10	1.184217671311720088e+07	2.890359942945599556e+07
3.754694224073336536e-10	1.184213981378075667e+07	2.890355225330322236e+07
3.877828414589456106e-10	1.184210170434046723e+07	2.890350353002116457e+07
4.005000757873611052e-10	1.184206234511129931e+07	2.890345320887213573e+07
4.136343684063274911e-10	1.184202169510676153e+07	2.890340123745451123e+07
4.271993966306778827e-10	1.184197971199622378e+07	2.890334756164818257e+07
4.412092863191189219e-10	1.184193635206083022e+07	2.890329212555817515e+07
4.556786265841064474e-10	1.184189157014797814e+07	2.890323487145645171e+07
4.706224849841281415e-10	1.184184531962430105e+07	2.890317573972181976e+07
4.860564232142136024e-10	1.184179755232709832e+07	2.890311466877779365e+07
5.019965133110081441e-10	1.184174821851418912e+07	2.890305159502853453e+07
5.184593543892912175e-10	1.184169726681211218e+07	2.890298645279257372e+07
5.354620899273606527e-10	1.184164464416262321e+07	2.890291917423445359e+07
5.530224256192902378e-10	1.184159029576745257e+07	2.890284968929405138e+07
5.711586478126431938e-10	1.184153416503123008e+07	2.890277792561366037e+07
5.898896425508497150e-10	1.184147619350256212e+07	2.890270380846260488e+07
6.092349152400710261e-10	1.184141632081315294e+07	2.890262726065945625e+07
6.292146109610343618e-10	1.184135448461494595e+07	2.890254820249161869e+07
6.498495354469890483e-10	1.184129062051519565e+07	2.890246655163236335e+07
6.711611767496282870e-10	1.184122466200941242e+07	2.890238222305506468e+07
6.931717276155404727e-10	1.184115654041211680e+07	2.890229512894468382e+07
7.159041085964887260e-10	1.184108618478529900e+07	2.890220517860630155e+07
7.393819919175865964e-10	1.184101352186455950e+07	2.890211227837068215e+07
7.636298261282244400e-10	1.184093847598281689e+07	2.890201633149674162e+07
7.886728615614152294e-10	1.184086096899149939e+07	2.890191723807079718e+07
8.145371766280743462e-10	1.184078092017917894e+07	2.890181489490250871e+07
8.412497049736117954e-10	1.184069824618751928e+07	2.890170919541745260e+07
8.688382635251186617e-10	1.184061286092446558e+07	2.890160002954611927e+07
8.973315814583522479e-10	1.184052467547459900e+07	2.890148728360930458e+07
9.267593301146878953e-10	1.184043359800654650e+07	2.890137084019971639e+07
9.571521538991863169e-10	1.184033953367734700e+07	2.890125057805972174e+07
9.885417021919573871e-10	1.184024238453368656e+07	2.890112637195509300e+07
1.020960662306046580e-09	1.184014779091260210e+07	2.890099894317331538e+07
1.054442793526168950e-09	1.184005333668375574e+07	2.890086781565079838e+07
1.089022962263730067e-09	1.183995578485379741e+07	2.890073238783633336e+07
1.124737178364752061e-09	1.183985503383772634e+07	2.890059251870300248e+07
1.161622632608501755e-09	1.183975097871909291e+07	2.890044806259893253e+07
1.199717735435884489e-09	1.183964351114073768e+07	2.890029886909566075e+07
1.239062156947916503e-09	1.183953251919196174e+07	2.890014478283144161e+07
1.279696868215940940e-09	1.183941788729198091e+07	2.889998564334949851e+07
1.321664183946605026e-09	1.183929949606957100e+07	2.889982128493090719e+07
1.365007806546013663e-09	1.183917722223875858e+07	2.889965153642204031e+07
1.409772871628966933e-09	1.183905093847044557e+07	2.889947622105632722e+07
1.456005995020649598e-09	1.183892051325980574e+07	2.889929515627019480e+07
1.503755321299737753e-09	1.183878581078934483e+07	2.889910815351294726e+07
1.553070573933460069e-09	1.183864669078747928e+07	2.889891501805040240e+07
1.604003107056820079e-09	1.183850300838244520e+07	2.889871554876214266e+07
1.656605958949914401e-09	1.183835461395145766e+07	2.889850953793204203e+07
1.710933907269014249e-09	1.183820135296488740e+07	2.889829677103200182e+07
1.767043526088946692e-09	1.183804306582534872e+07	2.889807702649851143e+07
1.824993244816152494e-09	1.183787958770150505e+07	2.889785007550195605e+07
1.884843409033795523e-09	1.183771074835641310e+07	2.889761568170830607e+07
1.946656343342262358e-09	1.183753637197026238e+07	2.889737360103303567e+07
2.010496416260498236e-09	1.183735627695727348e+07	2.889712358138691261e+07
2.076430107255774870e-09	1.183717027577661537e+07	2.889686536241352186e+07
2.144526075971667793e-09	1.183697817473709956e+07	2.889659867521812022e+07
2.214855233726359314e-09	1.183677977379549295e+07	2.889632324208764359e+07
2.287490817355702788e-09	1.183657486634819210e+07	2.889603877620149031e+07
2.362508465477946229e-09	1.183636323901609145e+07	2.889574498133285716e+07
2.439986297259550245e-09	1.183614467142236419e+07	2.889544155154027045e+07
2.520004993764092080e-09	1.183591893596299738e+07	2.889512817084897682e+07
2.602647881969005809e-09	1.183568579756975546e+07	2.889480451292192563e+07
2.688001021537606561e-09	1.183544501346540637e+07	2.889447024071992934e+07
2.776153294436799262e-09	1.183519633291090652e+07	2.889412500615067407e+07
2.867196497493770032e-09	1.183493949694428593e+07	2.889376844970627129e+07
2.961225437988034610e-09	1.183467423811099492e+07	2.889340020008886233e+07
3.058338032378433485e-09	1.183440028018537723e+07	2.889301987382396683e+07
3.158635408267817403e-09	1.183411733788302913e+07	2.889262707486117631e+07
3.262222009711669644e-09	1.183382511656372994e+07	2.889222139416170493e+07
3.369205705980266915e-09	1.183352331192460097e+07	2.889180240927244350e+07
3.479697903887691433e-09	1.183321160968323983e+07	2.889136968388606608e+07
3.593813663804627762e-09	1.183288968525043689e+07	2.889092276738664508e+07
3.711671819475765297e-09	1.183255720339216106e+07	2.889046119438043982e+07
3.833395101766601886e-09	1.183221381788047589e+07	2.888998448421122879e+07
3.959110266468459240e-09	1.183185917113298923e+07	2.888949214045981690e+07
4.088948226294862618e-09	1.183149289384049177e+07	2.888898365042706579e+07
4.223044187206674123e-09	1.183111460458237864e+07	2.888845848460001126e+07
4.361537789208003199e-09	1.183072390942946076e+07	2.888791609610044211e+07
4.504573251759458750e-09	1.183032040153373964e+07	2.888735592011543363e+07
4.652299523960189308e-09	1.182990366070475057e+07	2.888677737330916524e+07
4.804870439655131104e-09	1.182947325297199562e+07	2.888617985321549326e+07
4.962444877628916452e-09	1.182902873013302870e+07	2.888556273761052638e+07
5.125186927053329472e-09	1.182856962928672507e+07	2.888492538386473060e+07
5.293266058360561204e-09	1.182809547235124558e+07	2.888426712827370316e+07
5.466857299720180771e-09	1.182760576556617953e+07	2.888358728536703810e+07
5.646141419303669251e-09	1.182709999897837453e+07	2.888288514719450101e+07
5.831305113526221869e-09	1.182657764591091312e+07	2.888215998258882388e+07
6.022541201461928965e-09	1.182603816241463646e+07	2.888141103640430793e+07
6.220048825634711276e-09	1.182548098670172319e+07	2.888063752873044461e+07
6.424033659394191079e-09	1.182490553856067359e+07	2.887983865407978371e+07
6.634708121092347870e-09	1.182431121875210479e+07	2.887901358054912090e+07
6.852291595284060743e-09	1.182369740838474035e+07	2.887816144895320013e+07
7.077010661181889919e-09	1.182306346827092953e+07	2.887728137193003297e+07
7.309099328602911004e-09	1.182240873826103285e+07	2.887637243301682547e+07
7.548799281653435948e-09	1.182173253655598313e+07	2.887543368569562584e+07
7.796360130405233414e-09	1.182103415899729170e+07	2.887446415240769088e+07
8.052039670825474778e-09	1.182031287833378650e+07	2.887346282353549078e+07
8.316104153230961616e-09	1.181956794346428290e+07	2.887242865635136142e+07
8.588828559546249041e-09	1.181879857865543664e+07	2.887136057393167168e+07
8.870496889654407999e-09	1.181800398273393512e+07	2.887025746403536201e+07
9.161402457138517586e-09	1.181718332825220749e+07	2.886911817794572189e+07
9.461848194721997291e-09	1.181633576062675007e+07	2.886794152927419543e+07
9.772146969725725887e-09	1.181546039724823274e+07	2.886672629272492230e+07
1.009262190987047331e-08	1.181457192977583222e+07	2.886547489106560871e+07
1.042360673976401127e-08	1.181369396849073283e+07	2.886419182078978792e+07
1.076544612842315905e-08	1.181278721470065415e+07	2.886286667256823182e+07
1.111849604819270880e-08	1.181185072416311316e+07	2.886149806646599621e+07
1.148312414543511117e-08	1.181088352166944742e+07	2.886008457729354128e+07
1.185971012337669343e-08	1.180988460002929345e+07	2.885862473312259838e+07
1.224864613750930795e-08	1.180885291902173869e+07	2.885711701375342906e+07
1.265033720395903769e-08	1.180779089704464376e+07	2.885556093624654785e+07
1.306520162124721228e-08	1.180671416101749800e+07	2.885396008829829842e+07
1.349367140588306343e-08	1.180560211372099444e+07	2.885230674097074568e+07
1.393619274224142065e-08	1.180445359713152051e+07	2.885059917256081477e+07
1.439322644719406651e-08	1.180326741524839215e+07	2.884883560490264744e+07
1.486524844997857277e-08	1.180204233284839801e+07	2.884701420151590928e+07
1.535275028780422776e-08	1.180077707419951819e+07	2.884513306569338590e+07
1.585623961771137302e-08	1.179947077056959458e+07	2.884319039330500364e+07
1.637624074521687477e-08	1.179815310177096911e+07	2.884119486538473144e+07
1.691329517029648562e-08	1.179679222037733160e+07	2.883913389466127381e+07
1.746796215127245689e-08	1.179538670924321935e+07	2.883700533495545015e+07
1.804081928719382751e-08	1.179393510474825278e+07	2.883480696970469877e+07
1.863246311931559514e-08	1.179243589527302049e+07	2.883253650965488702e+07
1.924350975230330612e-08	1.179088751962495968e+07	2.883019159047641605e+07
1.987459549580983990e-08	1.178928836541260965e+07	2.882776977030210942e+07
2.052637752709252173e-08	1.178767448829358257e+07	2.882528297012919560e+07
2.119953457536071000e-08	1.178601298258808628e+07	2.882271664459056407e+07
2.189476762856620985e-08	1.178429698824839853e+07	2.882006615709387884e+07
2.261280066337277307e-08	1.178252471833436564e+07	2.881732874757028371e+07
2.335438139906479724e-08	1.178069432730361447e+07	2.881450156543521211e+07
2.412028207618007283e-08	1.177880390908970311e+07	2.881158166661993042e+07
2.491130026067788373e-08	1.177685149511725083e+07	2.880856601050577313e+07
2.572825967447932303e-08	1.177487779614051804e+07	2.880546960178590938e+07
2.657201105324503850e-08	1.177285440653568134e+07	2.880227803016886860e+07
2.744343303228365032e-08	1.177076466041118838e+07	2.879898179181624576e+07
2.834343306151309448e-08	1.176860638162276335e+07	2.879557745421050116e+07
2.927294835042816131e-08	1.176637732266006246e+07	2.879206147226561978e+07
3.023294684405776334e-08	1.176407516230625100e+07	2.878843018463542685e+07
3.122442823092858392e-08	1.176169750322080031e+07	2.878467980990087613e+07
3.224842498408442807e-08	1.175928850263737142e+07	2.878082842241480947e+07
3.330600343624588813e-08	1.175683116444980726e+07	2.877686518311190233e+07
3.439826489022924478e-08	1.175429323851514794e+07	2.877277197043852508e+07
3.552634676578139226e-08	1.175167208197982982e+07	2.876854452195283771e+07
3.669142378402493899e-08	1.174896496531861834e+07	2.876417843542736396e+07
3.789470919074667737e-08	1.174616906949223019e+07	2.875966916426474974e+07
3.913745601980383687e-08	1.174328148301174305e+07	2.875501201276320964e+07
4.042095839796305955e-08	1.174034734305904061e+07	2.875022730280875042e+07
4.174655289253134782e-08	1.173737183671035245e+07	2.874531436137653142e+07
4.311561990318228626e-08	1.173429874942863546e+07	2.874024030134710670e+07
4.452958509942655287e-08	1.173112488107335381e+07	2.873499983887928352e+07
4.598992090522439315e-08	1.172784692655621283e+07	2.872958751684968919e+07
4.749814803228499868e-08	1.172446147239943780e+07	2.872399769917007908e+07
4.905583706365045989e-08	1.172096499318117090e+07	2.871822456491819024e+07
5.066461008921269181e-08	1.171739923367293924e+07	2.871228845059269294e+07
5.232614239486661694e-08	1.171380780401182361e+07	2.870621064777778834e+07
5.404216420705915059e-08	1.171009859437776916e+07	2.869993352504890785e+07
5.581446249454960394e-08	1.170626774220813438e+07	2.869345054576290771e+07
5.764488282925879445e-08	1.170231125826857425e+07	2.868675495890919119e+07
5.953533130814369715e-08	1.169822502249887586e+07	2.867983979207956791e+07
6.148777653810024108e-08	1.169400477972255088e+07	2.867269784420759231e+07
6.350425168595962148e-08	1.168968177170732245e+07	2.866534462058817223e+07
6.558685659571428548e-08	1.168536186004203372e+07	2.865784351510748267e+07
6.773775997517751128e-08	1.168090027803177014e+07	2.865009641288345307e+07
6.995920165435375620e-08	1.167629237963554449e+07	2.864209524651884288e+07
7.225349491787214948e-08	1.167153336644670367e+07	2.863383168404826149e+07
7.462302891391107044e-08	1.166661828269613720e+07	2.862529712026176602e+07
7.707027114212294845e-08	1.166154201009161398e+07	2.861648266774384305e+07
7.959777002314985573e-08	1.165631428726657666e+07	2.860738987300247326e+07
8.220815755240541849e-08	1.165113738219412044e+07	2.859815754164979607e+07
8.490415204088747078e-08	1.164579070190764219e+07	2.858862243846542388e+07
8.768856094587425811e-08	1.164026867867451161e+07	2.857877463412829861e+07
9.056428379445295063e-08	1.163456556216980144e+07	2.856860387368794903e+07
9.353431520292386860e-08	1.162867541348821484e+07	2.855809956588554382e+07
9.660174799522647250e-08	1.162259209895965457e+07	2.854725077212475985e+07
9.976977642363202159e-08	1.161630928376195207e+07	2.853604619508095458e+07
1.030416994950587396e-07	1.161010827801103517e+07	2.852470177736952156e+07
1.064209244064724761e-07	1.160372641376644000e+07	2.851300311513085291e+07
1.099109700929497372e-07	1.159713525799480081e+07	2.850092079840025678e+07
1.135154708920999096e-07	1.159032794703659602e+07	2.848844224533152208e+07
1.172381803286598596e-07	1.158329739214042760e+07	2.847555446146016195e+07
1.210829750232039531e-07	1.157603627208119631e+07	2.846224402617171034e+07
1.250538587290391570e-07	1.156853702553619258e+07	2.844849707872625068e+07
1.291549665014884007e-07	1.156111089757035114e+07	2.843457846305393055e+07
1.333905690039058854e-07	1.155352594189920276e+07	2.842027750797067210e+07
1.377650769549053468e-07	1.154569223964020051e+07	2.840550755689927936e+07
1.422830457214352017e-07	1.153760163321568258e+07	2.839025322924204171e+07
1.469491800624817218e-07	1.152924569752241112e+07	2.837449863999867812e+07
1.517683390283405561e-07	1.152061573115814663e+07	2.835822738322458789e+07
1.567455410205594968e-07	1.151170274736049585e+07	2.834142251494660974e+07
1.618859690178197646e-07	1.150283883503708988e+07	2.832439648501354828e+07
1.671949759731990056e-07	1.149386523378295824e+07	2.830698703612847999e+07
1.726780903884356132e-07	1.148459734568134882e+07	2.828900664903436974e+07
1.783410220710008120e-07	1.147502551967399381e+07	2.827043659996571019e+07
1.841896680799711039e-07	1.146513978819875233e+07	2.825125755111611634e+07
1.902301188668944219e-07	1.145492985680995882e+07	2.823144953050104901e+07
1.964686646180446931e-07	1.144438509345835634e+07	2.821099191116005927e+07
2.029118018046678038e-07	1.143384212424273416e+07	2.819023378061203286e+07
2.095662399480432992e-07	1.142327762602989562e+07	2.816914036911481246e+07
2.164389086064020114e-07	1.141236666793030687e+07	2.814735520484228060e+07
2.235369645909794139e-07	1.140109788788486458e+07	2.812485560194762424e+07
2.308677994187169850e-07	1.138945955121877789e+07	2.810161813060775399e+07
2.384390470093720426e-07	1.137743953842174448e+07	2.807761859262481704e+07
2.462585916350547006e-07	1.136502533252736926e+07	2.805283199622755125e+07
2.543345761304648365e-07	1.135253192607745714e+07	2.802761681276815385e+07
2.626754103723835758e-07	1.134015954422313534e+07	2.800219667039149255e+07
2.712897800372467241e-07	1.132738141342270188e+07	2.797594288126024231e+07
2.801866556459195443e-07	1.131418422724824212e+07	2.794882810615258291e+07
2.893753019050950594e-07	1.130055424289110675e+07	2.792082410926422477e+07
2.988652873550382326e-07	1.128647726685092226e+07	2.789190172880524769e+07
3.086664943337274455e-07	1.127193864015526511e+07	2.786203084663266316e+07
3.187891292677645596e-07	1.125719252296992391e+07	2.783152634380695224e+07
3.292437333007768907e-07	1.124278386881359294e+07	2.780107632014633715e+07
3.400411932703706463e-07	1.122790268670688942e+07	2.776962769612284750e+07
3.511927530450727317e-07	1.121253348022236302e+07	2.773714772290528566e+07
3.627100252330649086e-07	1.119666024473136663e+07	2.770360257767331973e+07
3.746050032748993774e-07	1.118026645073775761e+07	2.766895732839628682e+07
3.868900739327976195e-07	1.116333502666499466e+07	2.763317589745695144e+07
3.995780301895269929e-07	1.114600325246205926e+07	2.759643844434384629e+07
4.126820845702951630e-07	1.112932321911354549e+07	2.756020866802269965e+07
4.262158829015325345e-07	1.111209616854296811e+07	2.752279074589961395e+07
4.401935185208874400e-07	1.109430416146717593e+07	2.748414571305153891e+07
4.546295469532399562e-07	1.107592867028903030e+07	2.744423332671121508e+07
4.695390010680058238e-07	1.105695055980382115e+07	2.740301202436060831e+07
4.849374067335232931e-07	1.103735006727292016e+07	2.736043888045006618e+07
5.008407989848212921e-07	1.101710678184398822e+07	2.731646956169803068e+07
5.172657387216018967e-07	1.099788369168598019e+07	2.727362957448295504e+07
