Frequency [GHz]	Zx real [Ohm/m]	Zy real [Ohm/m]
1.000000000000000166e-10	1.721789547475112840e+03	2.599796410604239554e+03
1.032794731918951654e-10	1.761285891943463184e+03	2.663889409842034183e+03
1.066664958279539403e-10	1.802077508440431757e+03	2.730084321807713877e+03
1.101645949633656381e-10	1.844206875064958922e+03	2.798450078165706145e+03
1.137774133221491146e-10	1.887717862973853244e+03	2.869057871175895343e+03
1.175087130904807540e-10	1.932655782066748316e+03	2.941981227829243380e+03
1.213623798344240958e-10	1.979067428169290224e+03	3.017296086414667116e+03
1.253424265461399975e-10	2.027001131763682224e+03	3.095080875596913756e+03
1.294529978227915867e-10	2.076506808317335071e+03	3.175416596087764447e+03
1.336983741824946476e-10	2.127636010262031050e+03	3.258386904995628356e+03
1.380829765218092491e-10	2.180441980677733227e+03	3.344078202941358086e+03
1.426113707194128486e-10	2.234979708736938392e+03	3.432579724031005298e+03
1.472882723907502473e-10	2.291305986967314311e+03	3.523983628779206811e+03
1.521185517986104510e-10	2.349479470392248004e+03	3.618385100079971380e+03
1.571072389247450498e-10	2.409560737610892829e+03	3.715882442324798831e+03
1.622595287078087593e-10	2.471612353881324907e+03	3.816577183771355976e+03
1.675807864530767868e-10	2.535698936272483024e+03	3.920574182269301218e+03
1.730765534195724819e-10	2.601887220952760799e+03	4.027981734453360787e+03
1.787525525904235329e-10	2.670246132685304474e+03	4.138911688517368930e+03
1.846146946324547531e-10	2.740846856602387561e+03	4.253479560686687364e+03
1.906690840512252406e-10	2.813762912333615077e+03	4.371804655510322846e+03
1.969220255479172543e-10	2.889070230565135716e+03	4.494010190097985287e+03
2.033800305846981002e-10	2.966847232109594188e+03	4.620223422431459767e+03
2.100498241653915480e-10	3.047174909569163901e+03	4.750575783883938129e+03
2.169383518385184289e-10	3.130136911676690488e+03	4.885203016085250056e+03
2.240527869300018610e-10	3.215819630402794246e+03	5.024245312275596007e+03
2.314005380130653023e-10	3.304312290919607676e+03	5.167847463294900081e+03
2.389892566231049743e-10	3.395707044514864265e+03	5.316159008359866675e+03
2.468268452255692806e-10	3.490099064553076460e+03	5.469334390785724281e+03
2.549214654451423314e-10	3.587586645583729478e+03	5.627533118814819318e+03
2.632815465648021228e-10	3.688271305699709956e+03	5.790919931719549822e+03
2.719157943036017723e-10	3.792257892252544025e+03	5.959664971352581233e+03
2.808331998823172083e-10	3.899654691034546431e+03	6.133943959323032686e+03
2.900430493863991314e-10	4.010573539041557979e+03	6.313938379983079358e+03
2.995549334359813486e-10	4.125129940933717990e+03	6.499835669415580014e+03
3.093787571730138678e-10	4.243443189315531527e+03	6.691829410619480768e+03
3.195247505759212065e-10	4.365636488960486531e+03	6.890119535096277104e+03
3.300034791125284578e-10	4.491837085109589680e+03	7.094912531047466473e+03
3.408258547423451742e-10	4.622176395977416178e+03	7.306421658399754961e+03
3.520031472796679687e-10	4.756790149603652935e+03	7.524867170881974744e+03
3.635469961293320139e-10	4.895818525192666129e+03	7.750476545384945894e+03
3.754694224073336536e-10	5.039406299088248488e+03	7.983484718843143128e+03
3.877828414589456106e-10	5.187702995535573791e+03	8.224134332884823380e+03
4.005000757873611052e-10	5.340863042387355563e+03	8.472675986505404580e+03
4.136343684063274911e-10	5.499045931916337395e+03	8.729368497027164267e+03
4.271993966306778827e-10	5.662416386901586520e+03	8.994479169617088701e+03
4.412092863191189219e-10	5.831144532161554707e+03	9.268284075643452525e+03
4.556786265841064474e-10	6.005406071712504854e+03	9.551068340161044034e+03
4.706224849841281415e-10	6.185382471736810658e+03	9.843126438824385332e+03
4.860564232142136024e-10	6.371261149551653943e+03	1.014476250453815373e+04
5.019965133110081441e-10	6.563235668774883379e+03	1.045629064416408983e+04
5.184593543892912175e-10	6.761505940891309365e+03	1.077803526561427134e+04
5.354620899273606527e-10	6.966278433429289180e+03	1.111033141567127313e+04
5.530224256192902378e-10	7.177766384964430472e+03	1.145352512888709680e+04
5.711586478126431938e-10	7.396190027174251554e+03	1.180797378792410200e+04
5.898896425508497150e-10	7.621776814175105756e+03	1.217404649571325535e+04
6.092349152400710261e-10	7.854761659380111269e+03	1.255212445981719975e+04
6.292146109610343618e-10	8.095387180124793304e+03	1.294260138939839635e+04
6.498495354469890483e-10	8.343903950315154361e+03	1.334588390520574467e+04
6.711611767496282870e-10	8.600570761361272162e+03	1.376239196300659387e+04
6.931717276155404727e-10	8.865654891668142227e+03	1.419255929090510654e+04
7.159041085964887260e-10	9.139432384964391531e+03	1.463683384100234071e+04
7.393819919175865964e-10	9.422188337758734633e+03	1.509567825586842628e+04
7.636298261282244400e-10	9.714217196223456995e+03	1.556957035031255873e+04
7.886728615614152294e-10	1.001582306281412639e+04	1.605900360895249287e+04
8.145371766280743462e-10	1.032732001294482143e+04	1.656448770010174485e+04
8.412497049736117954e-10	1.064903242204862181e+04	1.708654900650952550e+04
8.688382635251186617e-10	1.098129530336398238e+04	1.762573117350621396e+04
8.973315814583522479e-10	1.132445465679869812e+04	1.818259567512503054e+04
9.267593301146878953e-10	1.167886782923478313e+04	1.875772239878962137e+04
9.571521538991863169e-10	1.204490388664946113e+04	1.935171024917621980e+04
9.885417021919573871e-10	1.242294399843971951e+04	1.996517777187936008e+04
1.020960662306046580e-09	1.272065581774317980e+04	2.047721874636854773e+04
1.054442793526168950e-09	1.297577932443094869e+04	2.093742948893767971e+04
1.089022962263730067e-09	1.323926953812676220e+04	2.141273271943558575e+04
1.124737178364752061e-09	1.351140084274400033e+04	2.190362339195788809e+04
1.161622632608501755e-09	1.379245662054291097e+04	2.241061269248706230e+04
1.199717735435884489e-09	1.408272954722901159e+04	2.293422857121286870e+04
1.239062156947916503e-09	1.438252189672911481e+04	2.347501629231001061e+04
1.279696868215940940e-09	1.469214585596242250e+04	2.403353900174557202e+04
1.321664183946605026e-09	1.501192384993447558e+04	2.461037831370773347e+04
1.365007806546013663e-09	1.534218887749241730e+04	2.520613491626600080e+04
1.409772871628966933e-09	1.568328485809133235e+04	2.582142919689412156e+04
1.456005995020649598e-09	1.603556698993261671e+04	2.645690188850669438e+04
1.503755321299737753e-09	1.639940211984747293e+04	2.711321473668251565e+04
1.553070573933460069e-09	1.677516912531058551e+04	2.779105118876923734e+04
1.604003107056820079e-09	1.716325930898184743e+04	2.849111710558702543e+04
1.656605958949914401e-09	1.756407680618698578e+04	2.921414149647245722e+04
1.710933907269014249e-09	1.797803900576138767e+04	2.996087727842782988e+04
1.767043526088946692e-09	1.840557698469542083e+04	3.073210206016673328e+04
1.824993244816152494e-09	1.884713595703375540e+04	3.152861895187199843e+04
1.884843409033795523e-09	1.930317573749633448e+04	3.235125740150965430e+04
1.946656343342262358e-09	1.977417122030357132e+04	3.320087405856941768e+04
2.010496416260498236e-09	2.026061287370450009e+04	3.407835366613131919e+04
2.076430107255774870e-09	2.076300725072292698e+04	3.498460998218756140e+04
2.144526075971667793e-09	2.128187751665326141e+04	3.592058673117872968e+04
2.214855233726359314e-09	2.181776399385549303e+04	3.688725858673541370e+04
2.287490817355702788e-09	2.237122472441657010e+04	3.788563218664870510e+04
2.362508465477946229e-09	2.294283605126405382e+04	3.891674718112609116e+04
2.439986297259550245e-09	2.353319321833735012e+04	3.998167731542498950e+04
2.520004993764092080e-09	2.414291099044123985e+04	4.108153154799062759e+04
2.602647881969005809e-09	2.477262429342749965e+04	4.221745520526318433e+04
2.688001021537606561e-09	2.542298887537099290e+04	4.339063117435637832e+04
2.776153294436799262e-09	2.609468198942889285e+04	4.460228113484972710e+04
2.867196497493770032e-09	2.678840309909415009e+04	4.585366683097710484e+04
2.961225437988034610e-09	2.750487460657737392e+04	4.714609138553615048e+04
3.058338032378433485e-09	2.824484260507609361e+04	4.848090065688746108e+04
3.158635408267817403e-09	2.900907765571416530e+04	4.985948464045564469e+04
3.262222009711669644e-09	2.979837558996099324e+04	5.128327891619273578e+04
3.369205705980266915e-09	3.061355833836561942e+04	5.275376614351032913e+04
3.479697903887691433e-09	3.145547478646913078e+04	5.427247760523805482e+04
3.593813663804627762e-09	3.232500165878636471e+04	5.584099480221540580e+04
3.711671819475765297e-09	3.322304443177754729e+04	5.746095110017785919e+04
3.833395101766601886e-09	3.415053827676075161e+04	5.913403343065245281e+04
3.959110266468459240e-09	3.510844903374664136e+04	6.086198404763325379e+04
4.088948226294862618e-09	3.609777421721016435e+04	6.264660234186715388e+04
4.223044187206674123e-09	3.711954405484603922e+04	6.448974671463808045e+04
4.361537789208003199e-09	3.817482256039005006e+04	6.639333651300196652e+04
4.504573251759458750e-09	3.926470864162322687e+04	6.835935402848686499e+04
4.652299523960189308e-09	4.039033724471262394e+04	7.038984656134003308e+04
4.804870439655131104e-09	4.155288053608066548e+04	7.248692855247156695e+04
4.962444877628916452e-09	4.275354912303327728e+04	7.465278378531431372e+04
5.125186927053329472e-09	4.399359331441849645e+04	7.688966765989338455e+04
5.293266058360561204e-09	4.527430442262787255e+04	7.919990954147314187e+04
5.466857299720180771e-09	4.659701610829657875e+04	8.158591518622721196e+04
5.646141419303669251e-09	4.796310576910287637e+04	8.405016924645811378e+04
5.831305113526221869e-09	4.937399597411254945e+04	8.659523785797446908e+04
6.022541201461928965e-09	5.083115594516261626e+04	8.922377131232086685e+04
6.220048825634711276e-09	5.233610308682625327e+04	9.193850681664248987e+04
6.424033659394191079e-09	5.389040456655296293e+04	9.474227134405923425e+04
6.634708121092347870e-09	5.549567894662855542e+04	9.763798457751648675e+04
6.852291595284060743e-09	5.715359786965505918e+04	1.006286619501790847e+05
7.077010661181889919e-09	5.886588779930560850e+04	1.037174177855343150e+05
7.309099328602911004e-09	6.063433181816654542e+04	1.069074685404730408e+05
7.548799281653435948e-09	6.246077148453971313e+04	1.102021361547278793e+05
7.796360130405233414e-09	6.434710875013771874e+04	1.136048515101542289e+05
8.052039670825474778e-09	6.629530794066972157e+04	1.171191580034582730e+05
8.316104153230961616e-09	6.830739780137996422e+04	1.207487152360912733e+05
8.588828559546249041e-09	7.038547360966903216e+04	1.244973028251529322e+05
8.870496889654407999e-09	7.253169935699822963e+04	1.283688243392726581e+05
9.161402457138517586e-09	7.474831000234858948e+04	1.323673113635663176e+05
9.461848194721997291e-09	7.703761379958191537e+04	1.364969276979030983e+05
9.772146969725725887e-09	7.940199470112657582e+04	1.407619736928526545e+05
1.009262190987047331e-08	8.169950218638252409e+04	1.449662375480417977e+05
1.042360673976401127e-08	8.370544514443524531e+04	1.487985775760287652e+05
1.076544612842315905e-08	8.577717246404207253e+04	1.527565981678559328e+05
1.111849604819270880e-08	8.791684152570449805e+04	1.568444209839216492e+05
1.148312414543511117e-08	9.012668046063942893e+04	1.610663028533724428e+05
1.185971012337669343e-08	9.240899047102962504e+04	1.654266402069253381e+05
1.224864613750930795e-08	9.476614822636649478e+04	1.699299736550642119e+05
1.265033720395903769e-08	9.717654224008393066e+04	1.745458982135490805e+05
1.306520162124721228e-08	9.952738761685410282e+04	1.791110912436162180e+05
1.349367140588306343e-08	1.019553283375383617e+05	1.838259985552626895e+05
1.393619274224142065e-08	1.044628927232725691e+05	1.886955299882172840e+05
1.439322644719406651e-08	1.070526920108064514e+05	1.937247563990865310e+05
1.486524844997857277e-08	1.097274230716989696e+05	1.989189149418601301e+05
1.535275028780422776e-08	1.124898712206886557e+05	2.042834145215883327e+05
1.585623961771137302e-08	1.153400959297882509e+05	2.098196546720347542e+05
1.637624074521687477e-08	1.180862377799747483e+05	2.152438581191970443e+05
1.691329517029648562e-08	1.209224386159496207e+05	2.208459468642830616e+05
1.746796215127245689e-08	1.238516518980085530e+05	2.266317546079501626e+05
1.804081928719382751e-08	1.268769279443859996e+05	2.326073063655054139e+05
1.863246311931559514e-08	1.300014171076852217e+05	2.387788247410175100e+05
1.924350975230330612e-08	1.332283730554785288e+05	2.451527364071874472e+05
1.987459549580983990e-08	1.365611561584940937e+05	2.517356787977247150e+05
2.052637752709252173e-08	1.397873226581588679e+05	2.582069449493904249e+05
2.119953457536071000e-08	1.430889642433901899e+05	2.648444269116428331e+05
2.189476762856620985e-08	1.464988822793016443e+05	2.716995833154643187e+05
2.261280066337277307e-08	1.500206276630664070e+05	2.787795527358115069e+05
2.335438139906479724e-08	1.536578677425786736e+05	2.860917078552936437e+05
2.412028207618007283e-08	1.574143901354232512e+05	2.936436631416687742e+05
2.491130026067788373e-08	1.612941066730887105e+05	3.014432827771243756e+05
2.572825967447932303e-08	1.650777786567395378e+05	3.091522969838296995e+05
2.657201105324503850e-08	1.689069908804588486e+05	3.169922736850506626e+05
2.744343303228365032e-08	1.728617810925159138e+05	3.250893603204393876e+05
2.834343306151309448e-08	1.769462675893729902e+05	3.334519887413599063e+05
2.927294835042816131e-08	1.811647037259210774e+05	3.420888673194823787e+05
3.023294684405776334e-08	1.855214823446844239e+05	3.510089900151908514e+05
3.122442823092858392e-08	1.900211403502805042e+05	3.602216457433894975e+05
3.224842498408442807e-08	1.944458099869006837e+05	3.693827269328047405e+05
3.330600343624588813e-08	1.988692394110872410e+05	3.786116575447513605e+05
3.439826489022924478e-08	2.034377340174023702e+05	3.881432484620152391e+05
3.552634676578139226e-08	2.081560511796048377e+05	3.979874253481719643e+05
3.669142378402493899e-08	2.130291042882504407e+05	4.081544393762733089e+05
3.789470919074667737e-08	2.180619678672207519e+05	4.186548779038421344e+05
3.913745601980383687e-08	2.232598828580480767e+05	4.294996754979540128e+05
4.042095839796305955e-08	2.284181714570746699e+05	4.403574511144154239e+05
4.174655289253134782e-08	2.335062366289380298e+05	4.511808438562173978e+05
4.311561990318228626e-08	2.387611635340988578e+05	4.623591868614405394e+05
4.452958509942655287e-08	2.441884243583680072e+05	4.739041206288176472e+05
4.598992090522439315e-08	2.497936707464233041e+05	4.858276674041181104e+05
4.749814803228499868e-08	2.555827396871144592e+05	4.981422436994374148e+05
4.905583706365045989e-08	2.615616595917759987e+05	5.108606732230573543e+05
5.066461008921269181e-08	2.675553860320998938e+05	5.236922110492593492e+05
5.232614239486661694e-08	2.733811515991410124e+05	5.363332528057899326e+05
5.404216420705915059e-08	2.793979715861759032e+05	5.493888541379021481e+05
5.581446249454960394e-08	2.856121115716901259e+05	5.628726104157418013e+05
5.764488282925879445e-08	2.920300426121364580e+05	5.767985628659741487e+05
5.953533130814369715e-08	2.986584479805282317e+05	5.911812131935273064e+05
6.148777653810024108e-08	3.055042301260266104e+05	6.060355386828568298e+05
6.350425168595962148e-08	3.124441598339261254e+05	6.211518441771485377e+05
6.558685659571428548e-08	3.190817557085525477e+05	6.358485574712672969e+05
6.773775997517751128e-08	3.259370297604739317e+05	6.510272455379568273e+05
6.995920165435375620e-08	3.330171206871588365e+05	6.667037146106745349e+05
7.225349491787214948e-08	3.403294012977461680e+05	6.828942892840676941e+05
7.462302891391107044e-08	3.478814861906737206e+05	6.996158295134883374e+05
7.707027114212294845e-08	3.556812396830941434e+05	7.168857481720049400e+05
7.959777002314985573e-08	3.636864096990056569e+05	7.346322590375837171e+05
8.220815755240541849e-08	3.712089268866874627e+05	7.516328043354357360e+05
8.490415204088747078e-08	3.789781430088949855e+05	7.691908779588069301e+05
8.768856094587425811e-08	3.870021484910506988e+05	7.873247638996696332e+05
9.056428379445295063e-08	3.952892990819102270e+05	8.060533457686125766e+05
9.353431520292386860e-08	4.038482245547686471e+05	8.253961264591688523e+05
9.660174799522647250e-08	4.126878376940237358e+05	8.453732484570391243e+05
9.976977642363202159e-08	4.218173435764479218e+05	8.660055148153415648e+05
1.030416994950587396e-07	4.303611353333242587e+05	8.856845087282088352e+05
1.064209244064724761e-07	4.391159279251160333e+05	9.058814583557853475e+05
1.099109700929497372e-07	4.481578315929613309e+05	9.267407615319780307e+05
1.135154708920999096e-07	4.574962620676305960e+05	9.482841399638501462e+05
1.172381803286598596e-07	4.671409438662604080e+05	9.705340277160240803e+05
1.210829750232039531e-07	4.771019204189198790e+05	9.935135945722572505e+05
1.250538587290391570e-07	4.873895645272750407e+05	1.017246770163154928e+06
1.291549665014884007e-07	4.971143679086691700e+05	1.040042936435847776e+06
1.333905690039058854e-07	5.069190813725296175e+05	1.063131269448223058e+06
1.377650769549053468e-07	5.170453377859793836e+05	1.086976778152194107e+06
1.422830457214352017e-07	5.275036820638509234e+05	1.111604293921583332e+06
1.469491800624817218e-07	5.383050049386314349e+05	1.137039462468459969e+06
1.517683390283405561e-07	5.494605543014602736e+05	1.163308770549144363e+06
1.567455410205594968e-07	5.609819469150516670e+05	1.190439573546030791e+06
1.618859690178197646e-07	5.719970620688714553e+05	1.216714988107565325e+06
1.671949759731990056e-07	5.829046395290554501e+05	1.242926795545380563e+06
1.726780903884356132e-07	5.941699280679310905e+05	1.269998212181229377e+06
1.783410220710008120e-07	6.058046587244287366e+05	1.297957428668316687e+06
1.841896680799711039e-07	6.178209472537555266e+05	1.326833560164762428e+06
1.902301188668944219e-07	6.302313067440623417e+05	1.356656676652490394e+06
1.964686646180446931e-07	6.430486606468720129e+05	1.387457834250421729e+06
2.029118018046678038e-07	6.554598047476899810e+05	1.417577668906887760e+06
2.095662399480432992e-07	6.675070159625927918e+05	1.447107612404899206e+06
2.164389086064020114e-07	6.799493122396592516e+05	1.477605982483509462e+06
2.235369645909794139e-07	6.927996502875884762e+05	1.509104538432813017e+06
2.308677994187169850e-07	7.060714117268677801e+05	1.541636081080308883e+06
2.384390470093720426e-07	7.197784170246400172e+05	1.575234486947838683e+06
2.462585916350547006e-07	7.339349398865645053e+05	1.609934743528697873e+06
2.543345761304648365e-07	7.478397792223971337e+05	1.644253454375107773e+06
2.626754103723835758e-07	7.610418617381934309e+05	1.677238258156733122e+06
2.712897800372467241e-07	7.746769030108674197e+05	1.711304789735777304e+06
2.801866556459195443e-07	7.887591018067821860e+05	1.746488524085363606e+06
2.893753019050950594e-07	8.033031225370384054e+05	1.782826099570852239e+06
2.988652873550382326e-07	8.183241105281668715e+05	1.820355356102972059e+06
3.086664943337274455e-07	8.338377077936228598e+05	1.859115374542181613e+06
3.187891292677645596e-07	8.493203495697485050e+05	1.897958496646953980e+06
3.292437333007768907e-07	8.636652097229203209e+05	1.934453357951563084e+06
3.400411932703706463e-07	8.784805057192300446e+05	1.972145058449076256e+06
3.511927530450727317e-07	8.937816653760386398e+05	2.011072848159974441e+06
3.627100252330649086e-07	9.095846224618421402e+05	2.051277264298640890e+06
3.746050032748993774e-07	9.259058332888004370e+05	2.092800173486530781e+06
3.868900739327976195e-07	9.427622938494216651e+05	2.135684815349732991e+06
3.995780301895269929e-07	9.598866799173190957e+05	2.179325879376874305e+06
4.126820845702951630e-07	9.753288682992439717e+05	2.219278782618319616e+06
4.262158829015325345e-07	9.912774791093965760e+05	2.260541930610953830e+06
4.401935185208874400e-07	1.007749120335547253e+06	2.303158292480136268e+06
4.546295469532399562e-07	1.024760944619974820e+06	2.347172246512179729e+06
4.695390010680058238e-07	1.042330667121262290e+06	2.392629626367397141e+06
4.849374067335232931e-07	1.060476583961870056e+06	2.439577768808704335e+06
5.008407989848212921e-07	1.079217591280689696e+06	2.488065562995469198e+06
5.172657387216018967e-07	1.095733578727209009e+06	2.531435716174717993e+06
