# Frequency (Hz)	Real Part (Ohm/m)
1000.0	13069438.995983519
1018.6101701559753	13186059.255412547
1037.566678745186	13304849.837713193
1056.875971184804	13425851.132963378
1076.5446128423157	13549104.282907262
1096.5792912678098	13674651.194943856
1116.9868184678226	13802534.556376014
1137.7741332214914	13932797.848924542
1158.9483034398106	14065485.363512473
1180.5165285688054	14200642.215324463
1202.4861420374123	14338314.359146414
1224.8646137509306	14478548.604990633
1247.6595526308697	14621392.634011712
1270.8787092020582	14757152.002894025
1294.529978227916	14886084.300377432
1318.6214013947485	15017416.049855603
1343.1611700460153	15151191.905538443
1368.1576279674719	15287457.35265831
1393.619274224142	15426258.722935451
1419.5547660501015	15567643.210331341
1445.9729217920194	15711658.887095071
1472.882723907502	15858354.720108507
1500.2933220192183	16007780.587535504
1528.2140360258693	16159987.29578101
1556.654359271062	16315026.596765857
1585.6239617711371	16472408.42484133
1615.132693503091	16611354.429023089
1645.1905877536624	16752886.24198516
1675.807864530767	16897051.986068934
1706.9949340384078	17043900.67918078
1738.7624002162504	17193482.25145861
1771.1210643450886	17345847.56224874
1804.0819287193826	17501048.41739853
1837.6562003881704	17659137.586871017
1871.8552949655793	17820168.82268721
1906.690840512252	17984196.877202354
1942.1746814890264	18151277.5217224
1978.3188827841643	18321467.565466717
2015.1357338155585	18481403.755048323
2052.6377527092523	18632661.03407145
2090.8376905557498	18786733.236794528
2129.748535745521	18943672.749426596
2169.3835183851843	19103532.93309293
2209.756114795903	19266368.14197847
2250.880052095462	19432233.741808746
2292.7693128656488	19601186.128674895
2335.438139906479	19773282.748208877
2378.9010410788933	19948582.115115654
2423.1727942376006	20127143.83306881
2468.2684522556924	20309028.6149764
2514.2033481427966	20492881.084366716
2560.9931002584594	20652978.181196623
2608.6536176225477	20816054.71224
2657.2011053245064	20982166.125274546
2706.652070033241	21151368.89997051
2757.0233256095826	21323720.56709443
2808.3319988231724	21499279.728070203
2860.5955351757416	21678106.074904162
2913.831704832789	21860260.41048109
2968.0586086656026	22045804.669237737
3023.2946844057765	22234801.93822131
3079.5587129142264	22427316.47853969
3136.8698245668766	22623413.74721089
3195.2475057592133	22804994.6679728
3254.711605531848	22975695.08345955
3315.282342319423	23149572.2627242
3376.9803108250912	23326685.325881224
3439.8264890229243	23507094.49328043
3503.8422452906757	23690861.105982646
3569.0493456752292	23878047.64661622
3635.4699612933177	24068717.760621905
3703.126675869927	24262936.2778929
3772.0424934169973	24460769.23481774
3842.240846055061	24662283.896733426
3913.745601980384	24867548.780796267
3986.581073580439	25073919.215386212
4060.7720257003657	25250341.331152514
4136.343684063274	25430046.692512497
4213.321743847289	25613096.401225347
4291.732378422157	25799552.696164317
4371.602248248501	25989478.974478774
4452.958509942655	26182939.81314975
4535.828825510186	26380000.990946908
4620.241371751313	26580729.510794014
4706.224849841281	26785193.62255062
4793.808495089106	26993462.846217807
4883.02208687788	27205607.99557571
4973.895958790063	27421701.20226092
5066.461008921268	27617982.9037933
5160.7487103859075	27801028.654144026
5256.791122018419	27987480.9170551
5354.620899273607	28177403.088304926
5454.271305329836	28370859.743478104
5555.7762223988775	28567916.659921855
5659.170163246242	28768640.839111034
5764.488282925873	28973100.529429335
5871.766390733255	29181365.249374516
5981.040962380945	29393505.811195366
6092.349152400711	29609594.34496867
6205.7288067765	29829704.323124252
6321.218475812449	30049454.603746057
6438.8574272404185	30232818.749818515
6558.685659571435	30419595.333849896
6680.743915695614	30609847.861891236
6805.073696735206	30803641.02185203
6931.717276155407	31001040.705494765
7060.717714137772	31202114.03083882
7192.118872221193	31406929.364981376
7325.96542821523	31615556.347342853
7462.302891391108	31828065.913345207
7601.17761795533	32044530.318530656
7742.636826811269	32265023.163129296
7886.728615614156	32489619.417084116
8033.501977124735	32688527.303006586
8183.00681586739	32872065.766048297
8335.293965098195	33059019.91111739
8490.415204088747	33249453.30463758
8648.423275731726	33443430.69601457
8809.37190447399	33641018.03965149
8973.31581458352	33842282.51737416
9140.310748756232	34047292.561273605
9310.413487069076	34256117.876973696
9483.681866285926	34468829.46733186
9660.174799522645	34685499.65658071
9839.952296278227	34906202.11491922
10023.075482838643	35124500.96210291
10209.606623060476	35300863.31124468
10399.609139541202	35480507.79371306
10593.1476351837	35663495.49056777
10790.287915161836	35849888.619597405
10991.097009294961	36039750.55647417
11195.643194838794	36233145.85630238
11403.99601970033	36430140.27556773
11616.22632608502	36630800.794495404
11832.40627458378	36835195.639823906
12052.609368708414	37043394.30800297
12276.910479883603	37255467.58882311
12505.385872903913	37471487.58948483
12738.113231864783	37656341.853400595
12975.171686575868	37824443.385288514
13216.641839466038	37995673.315288335
13462.60579298911	38170089.86342128
13713.147177539455	38347752.33319297
13968.351179887397	38528721.13175745
14228.30457214352	38713057.790456146
14493.09574126215	38900824.98573919
14762.81471909391	39092086.560476184
15037.553212997384	39286907.54566332
15317.404637020798	39485354.18253474
15602.46414366368	39687493.94508522
15892.828656229764	39884872.57286463
16188.596901781993	40037179.71961532
16489.86944471065	40192321.32828299
16796.74872092653	40350350.14868624
17109.339072690134	40511319.912326746
17427.746784089173	40675285.35065856
17752.08011717636	40842302.21369746
18082.44934877952	41012427.28897641
18418.96680799711	41185718.42085409
18761.746914391195	41362234.53018254
19110.90621689136	41542035.63434087
19466.56343342263	41725182.86764184
19828.83949127071	41911738.502118096
20197.857568198782	42063520.125868924
20573.743134329114	42198462.34058798
20956.623994804308	42335915.85288419
21346.630333242454	42475927.39843279
21743.8947560008	42618544.58266782
22148.55233726359	42763815.89696863
22560.74066496859	42911790.73514737
22980.599887588487	43062519.410243414
23408.272761782944	43216053.1716304
23843.904700937208	43372444.222441465
24287.643824604504	43531745.73731901
24739.64100886812	43694011.880494505
25200.049937640895	43849384.94977723
25669.027154919517	43960484.15050649
26146.732118010917	44073650.926265515
26633.327251749808	44188923.754977435
27128.978003724646	44306341.83064602
27633.852900531667	44425945.0766822
28148.123605075813	44547774.15947833
28671.964974937695	44671870.50223523
29205.55512182745	44798276.299046576
29749.075472144435	44927034.52924528
30302.71082866393	45058188.97201695
30866.649433372742	45191784.22128534
31441.08303147265	45327865.70087463
32026.206936576502	45429040.746952824
32622.220097116733	45514923.45135186
33229.325163989684	45602404.447493196
33847.72855945983	45691513.47985816
34477.640547344636	45782280.84647785
35119.275304507275	45874737.409234956
35772.850993678774	45968914.60435701
36438.58983763541	46064844.45310508
37116.71819475767	46162559.57266141
37807.466635993485	46262093.187219486
38511.070023255685	46363479.13928072
39227.76758927723	46466751.90116125
39957.803018952654	46561930.32225088
40701.42453219439	46618443.52280509
41458.88496832911	46676008.44363767
42230.441872066716	46734644.657441966
43016.35758106799	46794372.101162456
43816.89931514194	46855211.08277357
44632.33926710397	46917182.288184576
45462.95469532399	46980306.78827305
46309.02801799736	47044606.04604919
47170.84690917023	47110101.92395345
48048.704396551344	47176816.69129002
48942.89896114532	47244773.03179864
49853.73463873894	47313994.05136729
50781.5211232767	47352782.03603984
51726.57387216024	47379373.5901563
52689.21421350677	47406460.017619565
53669.76945540476	47434050.528106846
54668.57299720181	47462154.50268897
55685.96444286408	47490781.49702015
56722.28971644549	47519941.24458688
57777.90117970507	47549643.66001752
58853.1577519145	47579898.842453375
59948.42503189408	47610717.078982465
61064.07542232036	47642108.84813726
62200.48825634718	47674084.823457524
63358.04992658254	47698315.426943704
64537.15401646702	47694002.44352448
65738.20143409586	47689609.19474995
66961.60054853215	47685134.18686819
68207.76732865692	47680575.898328304
69477.1254846024	47675932.779263064
70770.10661181889	47671203.25096197
72087.15033782135	47666385.705334425
73428.70447166759	47661478.50436303
74795.22515621828	47656479.97954656
76187.17702322999	47651388.431332745
77605.0333513357	47646202.128540285
79049.2762269642	47640919.307770394
80520.39670825469	47614345.14419746
82018.8949920221	47579663.332726195
83545.28058382872	47544336.08684215
85100.07247122246	47508351.39490105
86683.79930019773	47471697.02171994
88296.99955494082	47434360.50441694
89940.22174092053	47396329.14817391
91614.0245713852	47357590.021919936
93318.9771573324	47318129.953934684
95055.65920101192	47277935.52736986
96824.66119303115	47236993.07568734
98626.5846131283	47195288.67801241
100462.04213468132	47147990.29623292
102331.65783302448	47085224.133921966
104236.06739764012	47021289.88265038
106175.9183482999	46956165.80408383
108151.87025522892	46889829.755333886
110164.59496336569	46822259.181429245
112214.77682079801	46753431.107646696
114303.11291144785	46683322.131699555
116430.31329208757	46611908.41578058
118597.10123376705	46539165.67845688
120804.21346773289	46465069.18641396
123052.40043592616	46389593.74604616
125342.42654613995	46312713.69489054
127675.07043192645	46227144.79192521
130051.12521734099	46137701.79586287
132471.39878661174	46046594.25042454
134936.71405883064	45953791.17806313
137447.90926775365	45859261.02473408
140005.8382468096	45762971.649166696
142611.37071941295	45664890.3119358
145265.39259467812	45564983.66432989
147968.80626863963	45463217.73701234
150722.53093107554	45359557.928471334
153527.5028780421	45253968.993255034
156384.67583022476	45146415.02998776
159295.0212572123	45036959.37073105
162259.5287078087	44925732.540920936
165279.2061464897	44812435.76088216
168355.08029612005	44697030.508488744
171488.19698705408	44579477.54471138
174679.62151272455	44459736.90027578
177930.43899185772	44337767.862072654
181241.75473742394	44213528.95931479
184614.69463245454	44086977.94943666
188050.40551285836	43958071.80373123
191550.0555573528	43826766.6927201
195114.83468466165	43693017.9712507
198745.9549580986	43556780.16331659
202444.65099768018	43425791.22548481
206212.18039991445	43294484.51736656
210049.8241653915	43160734.169067614
213958.88713434213	43024494.70402839
217940.6984302958	42885719.799362816
221996.61191199525	42744362.27010808
226128.00663372793	42600374.053181045
230336.2873142131	42453706.19103655
234622.88481422624	42304308.81502115
238989.25662310526	42152131.12841722
243436.8873543108	41997121.38917169
247967.289250216	41839226.89230292
252582.00269627848	41683973.609416276
257282.59674479323	41538970.89594373
262070.66964838552	41391269.657300375
266947.8494034318	41240819.673473634
271915.7943036019	41087569.78984789
276976.1935036891	40931467.89981149
282130.76759394706	40772460.92703986
287381.2691851069	40610494.807448946
292729.4835042813	40445514.47081296
298177.22900196735	40277463.82203977
303726.3579703311	40106285.722098105
309378.75717301364	39931921.968589544
315136.34848664823	39754313.275959134
321001.08955431683	39594917.38460797
326974.97445117676	39437566.77973325
333060.03436245886	39277287.853327684
339258.33827409917	39114026.1088293
345571.9936762143	38947726.03548581
352003.1472796675	38778331.089480504
358553.9857459817	38605783.67470642
365226.7364308175	38430025.12318344
372023.6681413066	38250995.67511024
378947.09190746717	38068634.45854547
385999.36176797637	37882879.46871061
393182.87557057705	37693667.54690756
400500.07578736113	37511638.31997062
407953.45034524484	37348658.82966094
415545.53347188793	37182646.26330462
423278.90655735444	37013544.17484042
431156.19903182285	36841295.06773614
439180.0892596086	36665840.375439465
447353.3054498463	36487120.44146448
455678.6265841068	36305074.49910792
464158.8833612772	36119640.650787935
472796.9591600391	35930755.84699801
481595.79101923504	35738355.8648697
490558.37063650455	35542375.28633597
499687.7453854889	35342747.47588844
508987.0193519675	35171558.95809045
518459.3543892913	35003481.23397538
528107.971193433	34832275.554815106
537936.1503980698	34657883.708834
547947.2336900292	34480246.40092535
558144.6249454955	34299303.23249051
568531.7913873753	34114992.680902496
579112.2647641759	33927252.078587905
589889.6425508494	33736017.59171905
600867.5891719692	33541224.198509872
612049.837247669	33342805.66710784
623440.1888627863	33140694.533074282
635042.5168595961	32949587.283517532
646860.7661546321	32782598.686428852
658898.9550799957	32612502.403134234
671161.1767496272	32439240.599064644
683651.6004510238	32262754.363339745
696374.4730628222	32082983.688737832
709334.1204987989	31899867.451292537
722534.9491787221	31713343.389510028
735981.4475265755	31523348.083199613
749678.1874966878	31329816.931909885
763629.8261282243	31132684.132964183
777841.1071286482	30931882.65908679
792316.8624866261	30727344.235612944
807062.0141149492	30557901.566665284
822081.575524054	30391564.727725696
837380.6535266489	30222132.331910253
852964.4499741016	30049546.77037875
868838.2635251193	29873749.36218067
885007.4914473438	29694680.334303048
901477.6314524917	29512278.801346973
918254.2835656281	29326482.744825862
935343.1520292377	29137228.99207859
952750.0472427299	28944453.194790013
970480.8877380306	28748089.807111967
988541.7021919573	28548072.063376825
1006938.6314760271	28361750.947631966
1025677.9307444209	28201263.018439785
1044765.9715608053	28037788.381577328
1064209.2440647245	27871271.453906704
1084014.359178331	27701655.61787828
1104188.0508541602	27528883.20228021
1124737.1783647507	27352895.462629605
1145668.7286348727	27173632.561198715
1166989.8186171474	26991033.54666957
1188707.6977119034	26805036.333409715
1210829.7502320393	26615577.680362564
1233363.4979137746	26422593.169544674
1256316.6024741214	26226017.18414298
1279696.8682159416	26067678.588591672
1303512.2446815087	25911753.133605696
1327770.829355429	25752925.879370786
1352480.8704178738	25591142.822909154
1377650.769549055	25426348.956238396
1403289.084785873	25258488.247668255
1429404.533431761	25087503.62274912
1456005.9950206485	24913336.944866195
1483102.514336103	24735928.995472353
1510703.3044866556	24555219.453953255
1538817.7500383465	24371146.8771177
1567455.410205595	24183648.67830618
1596626.022101425	24011328.40021991
1626339.5040481905	23864061.57382013
1656605.9589499151	23714054.086722706
1687435.6777273756	23561254.934765738
1718839.1428171454	23405612.164591167
1750827.0317357269	23247072.855980083
1783410.220710006	23085583.103859372
1816599.7883753285	22921087.99997321
1850407.019542302	22753531.61421392
1884843.4090337954	22582856.975604925
1919920.6655932867	22409006.052930098
1955650.715865947	22231919.735002548
1992045.7084538713	22051537.810566038
2029118.0180466783	21909647.399493583
2066880.2496290822	21769166.362695243
2105345.242766708	21626070.949898392
2144526.0759716653	21480312.507120878
2184436.0711494284	21331841.474921573
2225088.7981283693	21180607.371549822
2266498.079273693	21026558.775780935
2308677.994187172	20869643.30943249
2351642.884494346	20709807.619555224
2395407.358720879	20546997.360292308
2439986.29725955	20381157.174401395
2485394.857429798	20212230.674432345
2531648.478631358	20058898.156104133
2578762.8875937983	19928298.000662576
2626754.1037238385	19795267.354105823
2675638.4445520453	19659760.984580707
2725432.531281028	19521732.81846151
2776153.2944368036	19381135.924684506
2827817.979625338	19237922.498790935
2880444.1533962977	19092043.846672833
2934049.709215787	18943450.368016712
2988652.873550383	18792091.53943872
3044272.2120643063	18637915.897306275
3100926.6359319235	18480871.02023987
3158635.408267819	18320903.511289105
3217418.1506763715	18197634.803595867
3277294.849923382	18074741.564979907
3338285.8647317644	17949561.26228227
3400411.9327037027	17822051.332851283
3463694.1773717343	17692168.42193699
3528154.1153808828	17559868.36795023
3593813.6638046256	17425106.187447134
3660695.147596906	17287836.05983427
3728821.30718283	17148011.311789233
3798215.306190736	17005584.401391022
3868900.7393279755	16860506.901955534
3940901.6404034477	16712729.485569745
4014242.490499326	16580150.03259726
4088948.226294856	16467243.070002776
4165044.248545185	16352234.889622582
4242556.430717777	16235086.387436198
4321511.127789762	16115757.731690615
4401935.1852088785	15994208.3493571
4483855.948021181	15870396.912336033
4567301.270168747	15744281.323404726
4652299.523960189	15615818.701904098
4738879.609717651	15484965.36915866
4827070.965603188	15351676.833625337
4916903.577628021	15215907.77576593
5008407.989848212	15077612.03263781
5101615.314749833	14972974.522825817
5196557.243827657	14867814.382948602
5293266.058360566	14760697.194974633
5391774.640387494	14651586.537905866
5492116.483887789	14540445.312943196
5594325.706169377	14427235.730872637
5698437.0594691355	14311919.299216455
5804485.942768984	14194456.809145361
5912508.413831869	14074808.322147125
6022541.201461928	13952933.156446924
6134621.717992506	13828789.873175263
6248788.072006888	13702336.2622782
6365079.081295578	13590138.95809702
6483534.286054714	13494381.700494643
6604193.962330305	13396842.384034587
6727099.135712336	13297487.844298327
6852291.595284057	13196284.299671808
6979813.907830667	13093197.339859385
7109709.432312423	12988191.914184019
7242022.334607315	12881232.319669507
7376797.60252773	12772282.188901283
7514081.061116962	12661304.477660937
7653919.388230155	12548261.45233088
7796360.130405221	12433114.67706451
7941451.71902934	12315825.000717495
8089243.486805938	12228541.05959085
8239785.684528512	12140043.967861135
8393129.498166373	12049899.930196015
8549327.066268368	11958078.29665142
8708431.497690724	11864547.846882533
8870496.889654402	11769276.779528702
9035578.34613892	11672232.701400468
9203731.99661823	11573382.616465628
9375015.01514529	11472692.914630234
9549485.639791967	11370129.360310722
9727203.192450536	11265657.080793526
9908228.099003786	11159240.554377934
10092621.909870483	11065822.125640439
10280447.320933098	10985782.4253715
10471768.194855202	10904253.172661327
10666649.582795387	10821206.646685526
10865157.746525371	10736614.610730452
11067360.180959744	10650448.302592406
11273325.63710487	10562678.424798207
11483124.14543511	10473275.13464369
11696827.039703846	10382208.034046896
11914506.981197748	10289446.159212379
12136237.983442418	10194957.970103199
12362095.437367693	10098711.33971697
12592156.13694151	10001016.223583257
12826498.3052806	9928825.68803247
13065201.621247198	9855291.674331438
13308347.24654076	9780389.180123162
13556017.853293689	9704092.737752572
13808297.652180923	9626376.405607171
14065272.421052363	9547213.759296646
14327029.534098294	9466577.882668287
14593657.991557576	9384441.358655186
14865248.449978571	9300776.259954194
15141893.25304352	9215554.139530258
15423686.462966273	9128746.020944178
15710723.892474487	9040322.388500292
16003103.137387017	8963496.751966747
16300923.609797413	8897334.628720576
16604286.571875297	8829941.217102919
16913295.17029647	8761293.60262766
17228054.471313924	8691368.444366219
17548671.49648152	8620141.967011338
17875255.259042352	8547589.952793282
18207916.800994623	8473687.733245464
18546769.230846975	8398410.180816963
18891927.762076646	8321731.700328838
19243509.75230332	8243626.22027152
19601634.743191857	8164067.183940232
19966424.501097932	8083887.215299225
20338003.0584698	8024484.651376722
20716496.75602067	7963976.595631918
21102034.285685964	7902342.47467389
21494746.734379806	7839561.332237423
