Frequency [GHz]	Zx imag [Ohm/m]	Zy imag [Ohm/m]
1.000000000000000166e-10	1.574627391245301440e+07	4.384886129463939369e+07
1.032794731918951654e-10	1.574627275443817675e+07	4.384885965919850767e+07
1.066664958279539403e-10	1.574627155844655074e+07	4.384885797012377530e+07
1.101645949633656381e-10	1.574627032323270105e+07	4.384885622565629333e+07
1.137774133221491146e-10	1.574626904751034454e+07	4.384885442397946119e+07
1.175087130904807540e-10	1.574626772995101288e+07	4.384885256321711838e+07
1.213623798344240958e-10	1.574626636918267794e+07	4.384885064143158495e+07
1.253424265461399975e-10	1.574626496378831193e+07	4.384884865662159771e+07
1.294529978227915867e-10	1.574626351230441220e+07	4.384884660672029853e+07
1.336983741824946476e-10	1.574626201321948878e+07	4.384884448959305137e+07
1.380829765218092491e-10	1.574626046497247554e+07	4.384884230303516984e+07
1.426113707194128486e-10	1.574625886595111899e+07	4.384884004476971179e+07
1.472882723907502473e-10	1.574625721449028328e+07	4.384883771244504303e+07
1.521185517986104510e-10	1.574625550887023285e+07	4.384883530363241583e+07
1.571072389247450498e-10	1.574625374731483124e+07	4.384883281582342088e+07
1.622595287078087593e-10	1.574625192798969150e+07	4.384883024642739445e+07
1.675807864530767868e-10	1.574625004900027066e+07	4.384882759276872128e+07
1.730765534195724819e-10	1.574624810838989727e+07	4.384882485208401829e+07
1.787525525904235329e-10	1.574624610413772427e+07	4.384882202151929587e+07
1.846146946324547531e-10	1.574624403415664099e+07	4.384881909812696278e+07
1.906690840512252406e-10	1.574624189629108272e+07	4.384881607886276394e+07
1.969220255479172543e-10	1.574623968831479549e+07	4.384881296058260649e+07
2.033800305846981002e-10	1.574623740792852081e+07	4.384880974003928155e+07
2.100498241653915480e-10	1.574623505275758728e+07	4.384880641387910396e+07
2.169383518385184289e-10	1.574623262034945190e+07	4.384880297863839567e+07
2.240527869300018610e-10	1.574623010817114636e+07	4.384879943073988706e+07
2.314005380130653023e-10	1.574622751360662654e+07	4.384879576648899913e+07
2.389892566231049743e-10	1.574622483395406045e+07	4.384879198206998408e+07
2.468268452255692806e-10	1.574622206642300449e+07	4.384878807354196906e+07
2.549214654451423314e-10	1.574621920813151263e+07	4.384878403683481365e+07
2.632815465648021228e-10	1.574621625610311329e+07	4.384877986774493754e+07
2.719157943036017723e-10	1.574621320726373605e+07	4.384877556193087995e+07
2.808331998823172083e-10	1.574621005843848921e+07	4.384877111490879953e+07
2.900430493863991314e-10	1.574620680634836107e+07	4.384876652204781771e+07
2.995549334359813486e-10	1.574620344760681130e+07	4.384876177856519818e+07
3.093787571730138678e-10	1.574619997871623188e+07	4.384875687952133268e+07
3.195247505759212065e-10	1.574619639606431499e+07	4.384875181981463730e+07
3.300034791125284578e-10	1.574619269592029043e+07	4.384874659417622536e+07
3.408258547423451742e-10	1.574618887443103269e+07	4.384874119716439396e+07
3.520031472796679687e-10	1.574618492761706002e+07	4.384873562315901369e+07
3.635469961293320139e-10	1.574618085136838071e+07	4.384872986635561287e+07
3.754694224073336536e-10	1.574617664144022018e+07	4.384872392075939476e+07
3.877828414589456106e-10	1.574617229344859160e+07	4.384871778017893434e+07
4.005000757873611052e-10	1.574616780286574550e+07	4.384871143821979314e+07
4.136343684063274911e-10	1.574616316501543671e+07	4.384870488827779144e+07
4.271993966306778827e-10	1.574615837506807223e+07	4.384869812353220582e+07
4.412092863191189219e-10	1.574615342803566903e+07	4.384869113693860918e+07
4.556786265841064474e-10	1.574614831876666285e+07	4.384868392122153193e+07
4.706224849841281415e-10	1.574614304194054939e+07	4.384867646886695921e+07
4.860564232142136024e-10	1.574613759206233732e+07	4.384866877211441100e+07
5.019965133110081441e-10	1.574613196345683187e+07	4.384866082294892520e+07
5.184593543892912175e-10	1.574612615026271716e+07	4.384865261309269816e+07
5.354620899273606527e-10	1.574612014642645977e+07	4.384864413399642706e+07
5.530224256192902378e-10	1.574611394569600001e+07	4.384863537683046609e+07
5.711586478126431938e-10	1.574610754161424935e+07	4.384862633247560263e+07
5.898896425508497150e-10	1.574610092751235515e+07	4.384861699151354283e+07
6.092349152400710261e-10	1.574609409650276229e+07	4.384860734421713650e+07
6.292146109610343618e-10	1.574608704147204012e+07	4.384859738054022938e+07
6.498495354469890483e-10	1.574607975507347472e+07	4.384858709010720998e+07
6.711611767496282870e-10	1.574607222971942462e+07	4.384857646220219880e+07
6.931717276155404727e-10	1.574606445757340454e+07	4.384856548575788736e+07
7.159041085964887260e-10	1.574605643054194003e+07	4.384855414934403449e+07
7.393819919175865964e-10	1.574604814026613161e+07	4.384854244115552306e+07
7.636298261282244400e-10	1.574603957811294869e+07	4.384853034900011122e+07
7.886728615614152294e-10	1.574603073516624607e+07	4.384851786028569937e+07
8.145371766280743462e-10	1.574602160221748054e+07	4.384850496200725436e+07
8.412497049736117954e-10	1.574601216975610703e+07	4.384849164073321968e+07
8.688382635251186617e-10	1.574600242795969173e+07	4.384847788259157538e+07
8.973315814583522479e-10	1.574599236668367311e+07	4.384846367325536907e+07
9.267593301146878953e-10	1.574598197545080632e+07	4.384844899792778492e+07
9.571521538991863169e-10	1.574597124344024248e+07	4.384843384132676572e+07
9.885417021919573871e-10	1.574596015947626904e+07	4.384841818766908348e+07
1.020960662306046580e-09	1.574594892851223797e+07	4.384840203265145421e+07
1.054442793526168950e-09	1.574593745146184415e+07	4.384838535460799187e+07
1.089022962263730067e-09	1.574592559802465886e+07	4.384836812961256504e+07
1.124737178364752061e-09	1.574591335585717857e+07	4.384835033972803503e+07
1.161622632608501755e-09	1.574590071221109666e+07	4.384833196642900258e+07
1.199717735435884489e-09	1.574588765392003208e+07	4.384831299058256298e+07
1.239062156947916503e-09	1.574587416738581285e+07	4.384829339242832363e+07
1.279696868215940940e-09	1.574586023856431805e+07	4.384827315155786276e+07
1.321664183946605026e-09	1.574584585295085795e+07	4.384825224689348787e+07
1.365007806546013663e-09	1.574583099556506053e+07	4.384823065666624904e+07
1.409772871628966933e-09	1.574581565093527921e+07	4.384820835839329660e+07
1.456005995020649598e-09	1.574579980308247730e+07	4.384818532885446399e+07
1.503755321299737753e-09	1.574578343550359085e+07	4.384816154406806827e+07
1.553070573933460069e-09	1.574576653115434386e+07	4.384813697926598042e+07
1.604003107056820079e-09	1.574574907243149355e+07	4.384811160886780173e+07
1.656605958949914401e-09	1.574573104115450941e+07	4.384808540645421296e+07
1.710933907269014249e-09	1.574571241854662821e+07	4.384805834473948926e+07
1.767043526088946692e-09	1.574569318521531671e+07	4.384803039554309845e+07
1.824993244816152494e-09	1.574567332113205828e+07	4.384800152976029366e+07
1.884843409033795523e-09	1.574565280561151542e+07	4.384797171733188629e+07
1.946656343342262358e-09	1.574563161728997715e+07	4.384794092721287161e+07
2.010496416260498236e-09	1.574560973410311341e+07	4.384790912734016776e+07
2.076430107255774870e-09	1.574558713326300308e+07	4.384787628459916264e+07
2.144526075971667793e-09	1.574556379123440012e+07	4.384784236478926241e+07
2.214855233726359314e-09	1.574553968371022679e+07	4.384780733258830011e+07
2.287490817355702788e-09	1.574551478558626026e+07	4.384777115151569247e+07
2.362508465477946229e-09	1.574548907093499415e+07	4.384773378389451653e+07
2.439986297259550245e-09	1.574546251297863200e+07	4.384769519081221521e+07
2.520004993764092080e-09	1.574543508406121284e+07	4.384765533208012581e+07
2.602647881969005809e-09	1.574540675561979786e+07	4.384761416619160026e+07
2.688001021537606561e-09	1.574537749815474264e+07	4.384757165027879924e+07
2.776153294436799262e-09	1.574534728119896352e+07	4.384752774006804079e+07
2.867196497493770032e-09	1.574531607328622043e+07	4.384748238983368129e+07
2.961225437988034610e-09	1.574528384191834368e+07	4.384743555235055089e+07
3.058338032378433485e-09	1.574525055353139900e+07	4.384738717884471267e+07
3.158635408267817403e-09	1.574521617346072942e+07	4.384733721894272417e+07
3.262222009711669644e-09	1.574518066590485722e+07	4.384728562061914057e+07
3.369205705980266915e-09	1.574514399388821051e+07	4.384723233014237136e+07
3.479697903887691433e-09	1.574510611922260933e+07	4.384717729201869667e+07
3.593813663804627762e-09	1.574506700246750377e+07	4.384712044893451780e+07
3.711671819475765297e-09	1.574502660288889892e+07	4.384706174169661850e+07
3.833395101766601886e-09	1.574498487841694430e+07	4.384700110917060822e+07
3.959110266468459240e-09	1.574494178560211696e+07	4.384693848821714520e+07
4.088948226294862618e-09	1.574489727956998162e+07	4.384687381362631172e+07
4.223044187206674123e-09	1.574485131397445127e+07	4.384680701804960519e+07
4.361537789208003199e-09	1.574480384094954096e+07	4.384673803192987293e+07
4.504573251759458750e-09	1.574475481105950288e+07	4.384666678342882544e+07
4.652299523960189308e-09	1.574470417324736714e+07	4.384659319835229963e+07
4.804870439655131104e-09	1.574465187478175573e+07	4.384651720007291436e+07
4.962444877628916452e-09	1.574459786120198481e+07	4.384643870945031941e+07
5.125186927053329472e-09	1.574454207626134716e+07	4.384635764474880695e+07
5.293266058360561204e-09	1.574448446186853573e+07	4.384627392155214399e+07
5.466857299720180771e-09	1.574442495802715421e+07	4.384618745267568529e+07
5.646141419303669251e-09	1.574436350277324952e+07	4.384609814807560295e+07
5.831305113526221869e-09	1.574430003211076744e+07	4.384600591475510597e+07
6.022541201461928965e-09	1.574423447994492389e+07	4.384591065666759014e+07
6.220048825634711276e-09	1.574416677801337652e+07	4.384581227461662889e+07
6.424033659394191079e-09	1.574409685581513308e+07	4.384571066615267098e+07
6.634708121092347870e-09	1.574402464053714089e+07	4.384560572546638548e+07
6.852291595284060743e-09	1.574395005697846785e+07	4.384549734327843040e+07
7.077010661181889919e-09	1.574387302747198381e+07	4.384538540672566742e+07
7.309099328602911004e-09	1.574379347180348262e+07	4.384526979924367368e+07
7.548799281653435948e-09	1.574371130712816305e+07	4.384515040044529736e+07
7.796360130405233414e-09	1.574362644788433984e+07	4.384502708599533886e+07
8.052039670825474778e-09	1.574353880570436642e+07	4.384489972748104483e+07
8.316104153230961616e-09	1.574344828932259604e+07	4.384476819227841496e+07
8.588828559546249041e-09	1.574335480448035151e+07	4.384463234341409057e+07
8.870496889654407999e-09	1.574325825382776558e+07	4.384449203942266852e+07
9.161402457138517586e-09	1.574315853682241216e+07	4.384434713419946283e+07
9.461848194721997291e-09	1.574305554962460138e+07	4.384419747684831172e+07
9.772146969725725887e-09	1.574294918498924561e+07	4.384404291152444482e+07
1.009262190987047331e-08	1.574283996825675108e+07	4.384388334096795321e+07
1.042360673976401127e-08	1.574272878594290279e+07	4.384371869917023927e+07
1.076544612842315905e-08	1.574261395743487962e+07	4.384354865798890591e+07
1.111849604819270880e-08	1.574249536315671727e+07	4.384337304035262018e+07
1.148312414543511117e-08	1.574237287961099669e+07	4.384319166338302195e+07
1.185971012337669343e-08	1.574224637925023027e+07	4.384300433820433170e+07
1.224864613750930795e-08	1.574211573034404404e+07	4.384281086974662542e+07
1.265033720395903769e-08	1.574198094664647058e+07	4.384261106934129447e+07
1.306520162124721228e-08	1.574184260547885485e+07	4.384240479024236649e+07
1.349367140588306343e-08	1.574169972744973190e+07	4.384219174627569318e+07
1.393619274224142065e-08	1.574155216377394646e+07	4.384197171558924019e+07
1.439322644719406651e-08	1.574139976078697294e+07	4.384174446905540675e+07
1.486524844997857277e-08	1.574124235978489928e+07	4.384150977003242075e+07
1.535275028780422776e-08	1.574107979685915634e+07	4.384126737411789596e+07
1.585623961771137302e-08	1.574091192281616107e+07	4.384101703181678057e+07
1.637624074521687477e-08	1.574073995222245343e+07	4.384075868454340845e+07
1.691329517029648562e-08	1.574056234189922735e+07	4.384049186484047025e+07
1.746796215127245689e-08	1.574037890689306334e+07	4.384021629485689849e+07
1.804081928719382751e-08	1.574018945618505031e+07	4.383993168762959540e+07
1.863246311931559514e-08	1.573999379249185510e+07	4.383963774678456783e+07
1.924350975230330612e-08	1.573979171206029318e+07	4.383933416622832417e+07
1.987459549580983990e-08	1.573958300445515476e+07	4.383902062982912362e+07
2.052637752709252173e-08	1.573936916355041042e+07	4.383869705907916278e+07
2.119953457536071000e-08	1.573914855013803579e+07	4.383836291174474359e+07
2.189476762856620985e-08	1.573892070176794566e+07	4.383801780613807589e+07
2.261280066337277307e-08	1.573868538117164001e+07	4.383766138288555294e+07
2.335438139906479724e-08	1.573844234329946339e+07	4.383729327082801610e+07
2.412028207618007283e-08	1.573819133506542258e+07	4.383691308663423359e+07
2.491130026067788373e-08	1.573793209508363716e+07	4.383652043440174311e+07
2.572825967447932303e-08	1.573766635793038085e+07	4.383611522725500166e+07
2.657201105324503850e-08	1.573739261114670150e+07	4.383569684472426772e+07
2.744343303228365032e-08	1.573710988691063784e+07	4.383526474145060033e+07
2.834343306151309448e-08	1.573681789080904610e+07	4.383481846746591479e+07
2.927294835042816131e-08	1.573651631877358258e+07	4.383435755804553628e+07
3.023294684405776334e-08	1.573620485676406138e+07	4.383388153322426975e+07
3.122442823092858392e-08	1.573588318044143543e+07	4.383338989729660749e+07
3.224842498408442807e-08	1.573555320671964064e+07	4.383288254594147205e+07
3.330600343624588813e-08	1.573521389238930121e+07	4.383235882419005781e+07
3.439826489022924478e-08	1.573486345033646002e+07	4.383181792712420225e+07
3.552634676578139226e-08	1.573450151563044451e+07	4.383125929148407280e+07
3.669142378402493899e-08	1.573412771137277223e+07	4.383068233553789556e+07
3.789470919074667737e-08	1.573374164830468036e+07	4.383008645847612619e+07
3.913745601980383687e-08	1.573334292440176569e+07	4.382947103978586197e+07
4.042095839796305955e-08	1.573293352329094522e+07	4.382883590534042567e+07
4.174655289253134782e-08	1.573251342933779769e+07	4.382818047365403175e+07
4.311561990318228626e-08	1.573207955851607583e+07	4.382750354726118594e+07
4.452958509942655287e-08	1.573163145901706815e+07	4.382680442124875635e+07
4.598992090522439315e-08	1.573116866421511769e+07	4.382608236758617312e+07
4.749814803228499868e-08	1.573069069218170457e+07	4.382533663436729461e+07
4.905583706365045989e-08	1.573019704518358968e+07	4.382456644502741843e+07
5.066461008921269181e-08	1.572968955510031991e+07	4.382377150482617319e+07
5.232614239486661694e-08	1.572917013954351097e+07	4.382295151490516216e+07
5.404216420705915059e-08	1.572863368989276327e+07	4.382210463363451511e+07
5.581446249454960394e-08	1.572807964751953073e+07	4.382122997911963612e+07
5.764488282925879445e-08	1.572750743547519669e+07	4.382032664054441452e+07
5.953533130814369715e-08	1.572691645789026842e+07	4.381939367722278833e+07
6.148777653810024108e-08	1.572630609935387038e+07	4.381843011761914194e+07
6.350425168595962148e-08	1.572567763338419609e+07	4.381743541755077988e+07
6.558685659571428548e-08	1.572503631789505668e+07	4.381640996334198117e+07
6.773775997517751128e-08	1.572437397063637339e+07	4.381535087963731587e+07
6.995920165435375620e-08	1.572368990187690780e+07	4.381425706356647611e+07
7.225349491787214948e-08	1.572298339926585928e+07	4.381312737609081715e+07
7.462302891391107044e-08	1.572225372709108144e+07	4.381196064081725478e+07
7.707027114212294845e-08	1.572150012551294267e+07	4.381075564277316630e+07
7.959777002314985573e-08	1.572072264711067453e+07	4.380951134963073581e+07
8.220815755240541849e-08	1.571993205813459121e+07	4.380822954148498923e+07
8.490415204088747078e-08	1.571911554200498015e+07	4.380690569678474218e+07
8.768856094587425811e-08	1.571827224844779074e+07	4.380553843695244193e+07
9.056428379445295063e-08	1.571740129930446483e+07	4.380412633820047230e+07
9.353431520292386860e-08	1.571650178761746734e+07	4.380266793004849553e+07
9.660174799522647250e-08	1.571557277668583766e+07	4.380116169379214197e+07
9.976977642363202159e-08	1.571461329908975586e+07	4.379960606092156470e+07
1.030416994950587396e-07	1.571363907579847984e+07	4.379800434932988137e+07
1.064209244064724761e-07	1.571263421014920436e+07	4.379635049603360891e+07
1.099109700929497372e-07	1.571159639020034671e+07	4.379464240506185591e+07
1.135154708920999096e-07	1.571052453522448614e+07	4.379287829770457745e+07
1.172381803286598596e-07	1.570941752905203588e+07	4.379105633691945672e+07
1.210829750232039531e-07	1.570827421890892647e+07	4.378917462541881204e+07
1.250538587290391570e-07	1.570709341421617381e+07	4.378723120369396359e+07
1.291549665014884007e-07	1.570589325880210474e+07	4.378523036530171335e+07
1.333905690039058854e-07	1.570465888833966665e+07	4.378316558722564578e+07
1.377650769549053468e-07	1.570338403702882305e+07	4.378103309530609101e+07
1.422830457214352017e-07	1.570206737731100433e+07	4.377883066888571531e+07
1.469491800624817218e-07	1.570070753809071332e+07	4.377655601448132098e+07
1.517683390283405561e-07	1.569930310330773704e+07	4.377420676339551806e+07
1.567455410205594968e-07	1.569785261046255752e+07	4.377178046925015002e+07
1.618859690178197646e-07	1.569637627274439856e+07	4.376928246711762249e+07
1.671949759731990056e-07	1.569486303719563782e+07	4.376670671207787097e+07
1.726780903884356132e-07	1.569330017549272440e+07	4.376404648584209383e+07
1.783410220710008120e-07	1.569168606015923619e+07	4.376129901820006967e+07
1.841896680799711039e-07	1.569001901034610160e+07	4.375846144809327275e+07
1.902301188668944219e-07	1.568829729008124955e+07	4.375553082063552737e+07
1.964686646180446931e-07	1.568651910646187142e+07	4.375250408403594047e+07
2.029118018046678038e-07	1.568470584307257831e+07	4.374938742139025778e+07
2.095662399480432992e-07	1.568285478654699586e+07	4.374617725567584485e+07
2.164389086064020114e-07	1.568094302511889115e+07	4.374286181343741715e+07
2.235369645909794139e-07	1.567896856798726134e+07	4.373943764215958118e+07
2.308677994187169850e-07	1.567692935906331055e+07	4.373590117610264570e+07
2.384390470093720426e-07	1.567482327482937463e+07	4.373224873258943856e+07
2.462585916350547006e-07	1.567264812212758511e+07	4.372847650817035884e+07
2.543345761304648365e-07	1.567042473871882632e+07	4.372459086829210073e+07
2.626754103723835758e-07	1.566816583227955550e+07	4.372059446026019752e+07
2.712897800372467241e-07	1.566583284560917690e+07	4.371646699109826237e+07
2.801866556459195443e-07	1.566342334926637262e+07	4.371220416269163787e+07
2.893753019050950594e-07	1.566093483413694613e+07	4.370780153597021848e+07
2.988652873550382326e-07	1.565836470882097259e+07	4.370325452628572285e+07
3.086664943337274455e-07	1.565571029693426564e+07	4.369855839863759279e+07
3.187891292677645596e-07	1.565298888509759679e+07	4.369371816713815928e+07
3.292437333007768907e-07	1.565023935732666217e+07	4.368874939867462218e+07
3.400411932703706463e-07	1.564739965952957794e+07	4.368361768078136444e+07
3.511927530450727317e-07	1.564446683460450545e+07	4.367831766957550496e+07
3.627100252330649086e-07	1.564143782847225107e+07	4.367284384592299163e+07
3.746050032748993774e-07	1.563830948689590767e+07	4.366719050969122350e+07
3.868900739327976195e-07	1.563507855219621770e+07	4.366135177381327748e+07
3.995780301895269929e-07	1.563175388588143513e+07	4.365532826578518748e+07
4.126820845702951630e-07	1.562841648409876414e+07	4.364916004985345900e+07
4.262158829015325345e-07	1.562496963311932236e+07	4.364278954893384129e+07
4.401935185208874400e-07	1.562140974358604476e+07	4.363621012914437056e+07
4.546295469532399562e-07	1.561773310842986219e+07	4.362941493904672563e+07
4.695390010680058238e-07	1.561393589900937118e+07	4.362239690251148492e+07
4.849374067335232931e-07	1.561001416112389229e+07	4.361514871134947240e+07
5.008407989848212921e-07	1.560596381089580432e+07	4.360766281770140678e+07
5.172657387216018967e-07	1.560192197940686159e+07	4.360001747861456126e+07
