# Frequency (Hz)	Imaginary Part (Ohm)
1000.0	0.0020392714225000003
1018.6101701559753	0.00206009672187608
1037.566678745186	0.002081309583617099
1056.875971184804	0.002102917220324612
1076.5446128423157	0.0021249269788279224
1096.5792912678098	0.0021473463426820703
1116.9868184678226	0.002170182934712332
1137.7741332214914	0.0021934445196060597
1158.9483034398106	0.0022171390065527583
1180.5165285688054	0.002241274451933294
1202.4861420374123	0.0022658590620591493
1224.8646137509306	0.002290901195962667
1247.6595526308697	0.0023164093682391976
1270.8787092020582	0.002340984274435401
1294.529978227916	0.0023646648242248557
1318.6214013947485	0.0023887860730752784
1343.1611700460153	0.0024133562224711823
1368.1576279674719	0.0024383836265281047
1393.619274224142	0.0024638767948330855
1419.5547660501015	0.0024898443953380377
1445.9729217920194	0.002516295257306929
1472.882723907502	0.0025432383743178347
1500.2933220192183	0.0025706829073208464
1528.2140360258693	0.0025986381877528917
1556.654359271062	0.0026271137207105376
1585.6239617711371	0.00265604133313425
1615.132693503091	0.0026824427926130153
1645.1905877536624	0.0027093355877450434
1675.807864530767	0.0027367288623704497
1706.9949340384078	0.0027646319304977657
1738.7624002162504	0.0027930542794708025
1771.1210643450886	0.0028220055731944613
1804.0819287193826	0.0028514956554205532
1837.6562003881704	0.0028815345530947855
1871.8552949655793	0.0029121324797660355
1906.690840512252	0.0029432998390590544
1942.1746814890264	0.0029750472282118303
1978.3188827841643	0.0030073854416787474
2015.1357338155585	0.00303841549746127
2052.6377527092523	0.0030683643395292
2090.8376905557498	0.003098870534643989
2129.748535745521	0.0031299444552406793
2169.3835183851843	0.003161596666787085
2209.756114795903	0.003193837931376183
2250.880052095462	0.003226679211385328
2292.7693128656488	0.0032601316732035813
2335.438139906479	0.0032942066910284103
2378.9010410788933	0.003328915850733027
2423.1727942376006	0.003364270953805721
2468.2684522556924	0.0034002840213624725
2514.2033481427966	0.003436766930403015
2560.9931002584594	0.003470086496384325
2608.6536176225477	0.003504026145158065
2657.2011053245064	0.003538597416570524
2706.652070033241	0.0035738120652264744
2757.0233256095826	0.0036096820644858935
2808.3319988231724	0.0036462196105350266
2860.5955351757416	0.003683437126533215
2913.831704832789	0.003721347266836915
2968.0586086656026	0.003759962921302303
3023.2946844057765	0.003799297219667974
3079.5587129142264	0.003839363536019198
3136.8698245668766	0.0038801754933352394
3195.2475057592133	0.003919187346509429
3254.711605531848	0.003956915964356158
3315.282342319423	0.003995346718200766
3376.9803108250912	0.0040344926749136464
3439.8264890229243	0.004074367144541867
3503.8422452906757	0.004114983684834752
3569.0493456752292	0.004156356105853633
3635.4699612933177	0.004198498474667439
3703.126675869927	0.004241425120135648
3772.0424934169973	0.004285150637780245
3842.240846055061	0.004329689894748368
3913.745601980384	0.004375058034867285
3986.581073580439	0.004420887340393891
4060.7720257003657	0.004462800272337976
4136.343684063274	0.004505493211077271
4213.321743847289	0.004548980672670969
4291.732378422157	0.004593277443324573
4371.602248248501	0.004638398584417402
4452.958509942655	0.004684359437623601
4535.828825510186	0.0047311756301284804
4620.241371751313	0.004778863079941932
4706.224849841281	0.004827438001310714
4793.808495089106	0.00487691691023148
4883.02208687788	0.0049273166300663985
4973.895958790063	0.004978654297263259
5066.461008921268	0.00502755334424771
5160.7487103859075	0.005074957306852621
5256.791122018419	0.0051232434652676824
5354.620899273607	0.005172428237307028
5454.271305329836	0.0052225283463231105
5555.7762223988775	0.005273560826892808
5659.170163246242	0.00532554303060939
5764.488282925873	0.005378492631982225
5871.766390733255	0.0054324276344462985
5981.040962380945	0.005487366376483596
6092.349152400711	0.005543327537858355
6205.7288067765	0.0056003301459684246
6321.218475812449	0.005657747392860059
6438.8574272404185	0.005710363549392198
6558.685659571435	0.005763958901550354
6680.743915695614	0.005818551672331743
6805.073696735206	0.0058741604238666595
6931.717276155407	0.005930804063729801
7060.717714137772	0.005988501851369053
7192.118872221193	0.006047273404653892
7325.96542821523	0.006107138706545689
7462.302891391108	0.00616811811189214
7601.17761795533	0.006230232354348091
7742.636826811269	0.00629350255342526
7886.728615614156	0.006357950221673062
8033.501977124735	0.006419135642759188
8183.00681586739	0.006478610936357096
8335.293965098195	0.006539193075288946
8490.415204088747	0.0066009026581347165
8648.423275731726	0.0066637606668175095
8809.37190447399	0.0067277884737375546
8973.31581458352	0.006793007849039096
9140.310748756232	0.006859440968012465
9310.413487069076	0.006927110418633915
9483.681866285926	0.006996039209245801
9660.174799522645	0.007066250776379612
9839.952296278227	0.007137768992724705
10023.075482838643	0.007209602390187767
10209.606623060476	0.0072755961889825575
10399.609139541202	0.007342818143602147
10593.1476351837	0.007411291110235426
10790.287915161836	0.007481038370428844
10991.097009294961	0.007552083639002368
11195.643194838794	0.007624451072112825
11403.99601970033	0.007698165275467216
11616.22632608502	0.007773251312688947
11832.40627458378	0.00784973471383971
12052.609368708414	0.007927641484099995
12276.910479883603	0.008006998112611139
12505.385872903913	0.008087831581481865
12738.113231864783	0.008164341769264494
12975.171686575868	0.008238931409773866
13216.641839466038	0.008314909176184992
13462.60579298911	0.008392300901757107
13713.147177539455	0.008471132900510778
13968.351179887397	0.008551431976174993
14228.30457214352	0.008633225431300679
14493.09574126215	0.008716541076543908
14762.81471909391	0.008801407240121774
15037.553212997384	0.008887852777444295
15317.404637020798	0.008975907080925619
15602.46414366368	0.009065600089977685
15892.828656229764	0.009155434972519878
16188.596901781993	0.009238206591205658
16489.86944471065	0.009322518603799254
16796.74872092653	0.0094083996772934
17109.339072690134	0.00949587901217846
17427.746784089173	0.009584986352370865
17752.08011717636	0.009675751995326403
18082.44934877952	0.00976820680234165
18418.96680799711	0.009862382209047192
18761.746914391195	0.009958310236096024
19110.90621689136	0.010056023500050974
19466.56343342263	0.010155555224474618
19828.83949127071	0.010256939251225705
20197.857568198782	0.010352629566473304
20573.743134329114	0.01044620318998005
20956.623994804308	0.010541518234542375
21346.630333242454	0.010638607108302443
21743.8947560008	0.010737502822523427
22148.55233726359	0.01083823900281375
22560.74066496859	0.010940849900560146
22980.599887588487	0.011045370404573453
23408.272761782944	0.011151836052951258
23843.904700937208	0.011260283045161126
24287.643824604504	0.011370748254348919
24739.64100886812	0.011483269239876023
25200.049937640895	0.011595655129862827
25669.027154919517	0.01169952635421764
26146.732118010917	0.011805330639731992
26633.327251749808	0.011913103961003
27128.978003724646	0.01202288296212113
27633.852900531667	0.012134704969129622
28148.123605075813	0.012248608002715747
28671.964974937695	0.012364630791138167
29205.55512182745	0.01248281278339511
29749.075472144435	0.01260319416263733
30302.71082866393	0.012725815859830838
30866.649433372742	0.012850719567673955
31441.08303147265	0.012977947754773133
32026.206936576502	0.013097704239252321
32622.220097116733	0.013215175538320807
33229.325163989684	0.013334832998253374
33847.72855945983	0.013456717303875746
34477.640547344636	0.013580869897165084
35119.275304507275	0.013707332991340849
35772.850993678774	0.013836149585217682
36438.58983763541	0.01396736347782543
37116.71819475767	0.014101019283301491
37807.466635993485	0.014237162446059767
38511.070023255685	0.014375839256242556
39227.76758927723	0.01451709686545955
39957.803018952654	0.014657796285233051
40701.42453219439	0.014788247885485781
41458.88496832911	0.014921127212216334
42230.441872066716	0.015056479445827543
43016.35758106799	0.015194350607537266
43816.89931514194	0.015334787575025995
44632.33926710397	0.015477838098375886
45462.95469532399	0.015623550816306205
46309.02801799736	0.015771975272711108
47170.84690917023	0.01592316193350503
48048.704396551344	0.01607716220378162
48942.89896114532	0.016234028445292124
49853.73463873894	0.01639381399424886
50781.5211232767	0.016543811280835333
51726.57387216024	0.01669140283867004
52689.21421350677	0.016841741100509632
53669.76945540476	0.016994877182983013
54668.57299720181	0.01715086315400823
55685.96444286408	0.017309752050496174
56722.28971644549	0.01747159789638367
57777.90117970507	0.017636455721002156
58853.1577519145	0.017804381577788336
59948.42503189408	0.017975432563342896
61064.07542232036	0.018149666836843978
62200.48825634718	0.01832714363982192
63358.04992658254	0.0185034336451837
64537.15401646702	0.018667396662448207
65738.20143409586	0.018834411059363298
66961.60054853215	0.01900453362262348
68207.76732865692	0.019177822195733323
69477.1254846024	0.019354335698674795
70770.10661181889	0.019534134147940845
72087.15033782135	0.01971727867694152
73428.70447166759	0.019903831556790028
74795.22515621828	0.020093856217475628
76187.17702322999	0.02028741726943039
77605.0333513357	0.020484580525497603
79049.2762269642	0.02068541302330875
80520.39670825469	0.020873430984064592
82018.8949920221	0.021059002050492333
83545.28058382872	0.021248026626042305
85100.07247122246	0.021440568981106932
86683.79930019773	0.02163669458216152
88296.99955494082	0.02183647011402369
89940.22174092053	0.022039963502526853
91614.0245713852	0.02224724393761564
93318.9771573324	0.022458381896871448
95055.65920101192	0.022673449169475366
96824.66119303115	0.022892518880617423
98626.5846131283	0.023115665516359893
100462.04213468132	0.023336709980224263
102331.65783302448	0.023542929274661093
104236.06739764012	0.023752986345256837
106175.9183482999	0.023966952613678844
108151.87025522892	0.024184900830763852
110164.59496336569	0.02440690510125396
112214.77682079801	0.024633040908993258
114303.11291144785	0.024863385142592936
116430.31329208757	0.025098016121574376
118597.10123376705	0.025337013622998505
120804.21346773289	0.025580458908590988
123052.40043592616	0.025828434752372016
125342.42654613995	0.026081025468800388
127675.07043192645	0.026316845128129526
130051.12521734099	0.026550303597682012
132471.39878661174	0.026788106769077166
134936.71405883064	0.02703033549795562
137447.90926775365	0.02727707214469516
140005.8382468096	0.02752840060241426
142611.37071941295	0.027784406325496558
145265.39259467812	0.028045176358646312
147968.80626863963	0.028310799366484556
150722.53093107554	0.028581365663696
153527.5028780421	0.028856967245737043
156384.67583022476	0.029137697820115122
159295.0212572123	0.029415014702706414
162259.5287078087	0.029674508166076252
165279.2061464897	0.029938830846953837
168355.08029612005	0.030208072617898585
171488.19698705408	0.030482325024013733
174679.62151272455	0.03076168131407236
177930.43899185772	0.03104623647222313
181241.75473742394	0.03133608725028587
184614.69463245454	0.031631332200648114
188050.40551285836	0.031932071709774384
191550.0555573528	0.03223840803233807
195114.83468466165	0.032550445325989635
198745.9549580986	0.0328682896867711
202444.65099768018	0.03316419336296025
206212.18039991445	0.03345801765373718
210049.8241653915	0.03375731006456142
213958.88713434213	0.034062172358077486
217940.6984302958	0.03437270819075004
221996.61191199525	0.0346890231481081
226128.00663372793	0.03501122478064557
230336.2873142131	0.03533942264038902
234622.88481422624	0.03567372831814714
238989.25662310526	0.036014255481452484
243436.8873543108	0.0363611199132096
247967.289250216	0.036714439551062863
252582.00269627848	0.037062491937116096
257282.59674479323	0.03738913283325688
262070.66964838552	0.037721852572054786
266947.8494034318	0.03806076428180592
271915.7943036019	0.03840598319614339
276976.1935036891	0.03875762669321776
282130.76759394706	0.03911581433560689
287381.2691851069	0.03948066791096872
292729.4835042813	0.03985231147344996
298177.22900196735	0.040230871385866424
303726.3579703311	0.04061647636266715
309378.75717301364	0.04100925751369914
315136.34848664823	0.04140934838878595
321001.08955431683	0.0417807526140534
326974.97445117676	0.04215065333112357
333060.03436245886	0.042527437963479194
339258.33827409917	0.04291123462195508
345571.9936762143	0.043302173801550596
352003.1472796675	0.0437003884257989
358553.9857459817	0.04410601389196318
365226.7364308175	0.04451918811707229
372023.6681413066	0.04494005158481476
378947.09190746717	0.04536874739330442
385999.36176797637	0.04580542130373513
393182.87557057705	0.0462502217899417
400500.07578736113	0.04668716553463899
407953.45034524484	0.047098420093526425
415545.53347188793	0.04751732816973219
423278.90655735444	0.04794403219651579
431156.19903182285	0.04837867725784421
439180.0892596086	0.04882141113772128
447353.3054498463	0.04927238437043671
455678.6265841068	0.04973175029174886
464158.8833612772	0.050199665091020314
472796.9591600391	0.050676287864324814
481595.79101923504	0.05116178066854071
490558.37063650455	0.05165630857645254
499687.7453854889	0.052160039732877556
508987.0193519675	0.05262629419964072
518459.3543892913	0.053092051094411515
528107.971193433	0.05356647580424531
537936.1503980698	0.05404972963865524
547947.2336900292	0.054541976909152155
558144.6249454955	0.05504338498511171
568531.7913873753	0.05555412435068256
579112.2647641759	0.056074368662752026
589889.6425508494	0.05660429480999175
600867.5891719692	0.05714408297300179
612049.837247669	0.057693916685573464
623440.1888627863	0.05825398289709373
635042.5168595961	0.058802609726911786
646860.7661546321	0.05932046893908641
658898.9550799957	0.05984796559931653
671161.1767496272	0.060385279062150056
683651.6004510238	0.06093259201995418
696374.4730628222	0.061490090565031526
709334.1204987989	0.06205796425289444
722534.9491787221	0.06263640616671572
735981.4475265755	0.0632256129829784
749678.1874966878	0.0638257850383489
763629.8261282243	0.06443712639779267
777841.1071286482	0.06505984492395907
792316.8624866261	0.06569415234785675
807062.0141149492	0.06627954561337762
822081.575524054	0.0668660637927053
837380.6535266489	0.06746349717514978
852964.4499741016	0.0680720488944984
868838.2635251193	0.06869192586489288
885007.4914473438	0.06932333885118218
901477.6314524917	0.06996650254058494
918254.2835656281	0.07062163561568567
935343.1520292377	0.07128896082878879
952750.0472427299	0.0719687050776572
970480.8877380306	0.07266109948265957
988541.7021919573	0.07336637946535401
1006938.6314760271	0.07405530365651924
1025677.9307444209	0.07470745828137254
1044765.9715608053	0.07537174961476235
1064209.2440647245	0.07604840352289959
1084014.359178331	0.07673765007540402
1104188.0508541602	0.07743972362352997
1124737.1783647507	0.07815486287984856
1145668.7286348727	0.07888331099941251
1166989.8186171474	0.07962531566243129
1188707.6977119034	0.08038112915848539
1210829.7502320393	0.08115100847230722
1233363.4979137746	0.08193521537115876
1256316.6024741214	0.08273401649383566
1279696.8682159416	0.08346903979885889
1303512.2446815087	0.08420768088451296
1327770.829355429	0.08496006820645538
1352480.8704178738	0.08572645758448227
1377650.769549055	0.08650710959924005
1403289.084785873	0.08730228968082503
1429404.533431761	0.08811226819903292
1456005.9950206485	0.08893732055528734
1483102.514336103	0.08977772727627929
1510703.3044866556	0.09063377410934916
1538817.7500383465	0.09150575211964389
1567455.410205595	0.0923939577890824
1596626.022101425	0.09325910717496301
1626339.5040481905	0.09408042809722016
1656605.9589499151	0.09491703394159319
1687435.6777273756	0.09576920916308347
1718839.1428171454	0.09663724351044833
1750827.0317357269	0.09752143212471907
1783410.220710006	0.09842207563955101
1816599.7883753285	0.09933948028344425
1850407.019542302	0.10027395798386199
1884843.4090337954	0.10122582647329148
1919920.6655932867	0.10219540939727548
1955650.715865947	0.10318303642445496
1992045.7084538713	0.1041890433586611
2029118.0180466783	0.10511197775312447
2066880.2496290822	0.1060422367197548
2105345.242766708	0.10698980796404338
2144526.0759716653	0.10795501367042298
2184436.0711494284	0.10893818201923386
2225088.7981283693	0.10993964729830809
2266498.079273693	0.11095975001663122
2308677.994187172	0.11199883702011894
2351642.884494346	0.1130572616095482
2395407.358720879	0.11413538366068426
2439986.29725955	0.11523356974664077
2485394.857429798	0.11635219326251987
2531648.478631358	0.11743868183555788
2578762.8875937983	0.11847308452976303
2626754.1037238385	0.11952673763411728
2675638.4445520453	0.12059999940202897
2725432.531281028	0.12169323475406318
2776153.2944368036	0.12280681540201967
2827817.979625338	0.1239411199753165
2880444.1533962977	0.12509653414973157
2934049.709215787	0.12627345077853286
2988652.873550383	0.1274722700260556
3044272.2120643063	0.12869339950376107
3100926.6359319235	0.1299372544088289
3158635.408267819	0.13120425766532967
3217418.1506763715	0.1323631665163694
3277294.849923382	0.13353478342609723
3338285.8647317644	0.13472820432587293
3400411.9327037027	0.1359438349916608
3463694.1773717343	0.13718208875098611
3528154.1153808828	0.1384433866234686
3593813.6638046256	0.13972815746397546
3660695.147596906	0.1410368381084356
3728821.30718283	0.1423698735223687
3798215.306190736	0.14372771695217937
3868900.7393279755	0.14511083007926381
3940901.6404034477	0.14651968317698838
4014242.490499326	0.1478841623427531
4088948.226294856	0.14918695516396469
4165044.248545185	0.15051399318125738
4242556.430717777	0.1518657276018551
4321511.127789762	0.15324261803002595
4401935.1852088785	0.15464513262335128
4483855.948021181	0.1560737482519044
4567301.270168747	0.15752895066039263
4652299.523960189	0.15901123463331407
4738879.609717651	0.16052110416319101
4827070.965603188	0.16205907262193253
4916903.577628021	0.16362566293538533
5008407.989848212	0.16522140776113647
5101615.314749833	0.1666766383408227
5196557.243827657	0.16815225805598702
5293266.058360566	0.16965533930513615
5391774.640387494	0.17118639315208978
5492116.483887789	0.1727459401716537
5594325.706169377	0.1743345106266178
5698437.0594691355	0.17595264464805346
5804485.942768984	0.17760089241896335
5912508.413831869	0.17927981436134868
6022541.201461928	0.18098998132676095
6134621.717992506	0.18273197479039438
6248788.072006888	0.18450638704879654
6365079.081295578	0.18621999798674177
6483534.286054714	0.1878608393881306
6604193.962330305	0.18953221712719873
6727099.135712336	0.19123469949038543
6852291.595284057	0.1929688653400385
6979813.907830667	0.19473530431123282
7109709.432312423	0.19653461701225056
7242022.334607315	0.19836741522879844
7376797.60252773	0.2002343221320178
7514081.061116962	0.2021359724903713
7653919.388230155	0.2040730128854713
7796360.130405221	0.20604610193192252
7941451.71902934	0.20805591050126154
8089243.486805938	0.2098832344809718
8239785.684528512	0.21174175613945756
8393129.498166373	0.21363486520224648
8549327.066268368	0.2155632053468172
8708431.497690724	0.21752743222959758
8870496.889654402	0.21952821370889108
9035578.34613892	0.22156623007195908
9203731.99661823	0.22364217426632482
9375015.01514529	0.22575675213538182
9549485.639791967	0.22791068265838998
9727203.192450536	0.23010469819493548
9908228.099003786	0.23233954473394067
10092621.909870483	0.23449162572511148
10280447.320933098	0.23655824907458617
10471768.194855202	0.23866333263624284
10666649.582795387	0.24080759216117448
10865157.746525371	0.24299175672072368
11067360.180959744	0.24521656895437485
11273325.63710487	0.24748278532225923
11483124.14543511	0.24979117636236015
11696827.039703846	0.25214252695250394
11914506.981197748	0.25453763657722656
12136237.983442418	0.25697731959960785
12362095.437367693	0.259462405538162
12592156.13694151	0.26199026678104015
