# Frequency (Hz)	Real Part (Ohm)
1000.0	4.12655781346833
1018.6101701559753	4.142764495777889
1037.566678745186	4.159272787202892
1056.875971184804	4.1760883007402985
1076.544612842316	4.193216753845898
1096.5792912678098	4.210663970378299
1116.9868184678226	4.2284358825791175
1137.7741332214914	4.24653853308999
1158.9483034398106	4.264978077007144
1180.5165285688056	4.283760783974195
1202.4861420374123	4.302893040313893
1224.8646137509306	4.322381351199539
1247.6595526308697	4.343697652582242
1270.8787092020582	4.36551675758041
1294.529978227916	4.387741919835246
1318.6214013947485	4.410380696141388
1343.1611700460153	4.43344078392671
1368.1576279674719	4.45693002386953
1393.6192742241421	4.48085640256452
1419.5547660501015	4.50522805523824
1445.9729217920196	4.5300532685152
1472.8827239075017	4.555340483235401
1500.2933220192183	4.581098297324318
1528.2140360258693	4.607335468716275
1556.654359271062	4.635641524970657
1585.6239617711371	4.665129423317748
1615.1326935030913	4.695166096470623
1645.1905877536624	4.7257617572217905
1675.8078645307671	4.756926808425572
1706.994934038408	4.788671846535177
1738.7624002162504	4.821007665205608
1771.1210643450886	4.8539452589636305
1804.0819287193829	4.887495826946016
1837.6562003881704	4.9216707767073835
1871.8552949655793	4.9564817280988835
1906.690840512252	4.991940517219069
1942.1746814890264	5.029270471678806
1978.3188827841643	5.068594583593662
2015.1357338155585	5.108650523922489
2052.6377527092523	5.149451912116591
2090.83769055575	5.1910126210875855
2129.748535745521	5.233346781924335
2169.3835183851843	5.276468788697664
2209.756114795903	5.320393303354515
2250.880052095462	5.365135260703147
2292.7693128656488	5.410709873491147
2335.438139906479	5.457132637577926
2378.9010410788933	5.504419337203471
2423.1727942376006	5.553063357871414
2468.2684522556924	5.603979556183692
2514.2033481427966	5.655843313610256
2560.9931002584594	5.7086722643874594
2608.6536176225477	5.762484370927785
2657.201105324507	5.817297929927281
2706.652070033241	5.873131578586609
2757.0233256095826	5.930004300947917
2808.3319988231724	5.987935434349604
2860.595535175742	6.046944676001223
2913.8317048327885	6.107052089680756
2968.058608665602	6.168278112556498
3023.2946844057765	6.230629315211616
3079.5587129142264	6.29376057624071
3136.8698245668766	6.358066720779713
3195.2475057592137	6.423569613610666
3254.711605531848	6.490291526422907
3315.282342319423	6.558255145385718
3376.9803108250912	6.627483578861844
3439.8264890229248	6.6980003652645905
3503.8422452906757	6.769829481061146
3569.0493456752297	6.842995348924827
3635.4699612933177	6.91752284603906
3703.126675869927	6.993437312555893
3772.0424934169973	7.070764560211899
3842.240846055061	7.145917790721106
3913.745601980384	7.221626888789046
3986.581073580439	7.298744946054384
4060.7720257003652	7.377298183487534
4136.343684063274	7.457313310035614
4213.321743847289	7.53881753170381
4291.732378422157	7.621838560805675
4371.602248248502	7.706404625385651
4452.958509942656	7.792544478816886
4535.828825510186	7.880287409577683
4620.241371751313	7.969663251209926
4706.224849841282	8.060702392462776
4793.808495089107	8.147790264513484
4883.02208687788	8.232508485168225
4973.895958790063	8.318803326324659
5066.461008921268	8.406704129158602
5160.7487103859075	8.496240780890126
5256.791122018419	8.587443724945569
5354.620899273607	8.680343971308618
5454.271305329837	8.774973107064014
5555.7762223988775	8.871363307137523
5659.170163246243	8.969547345235773
5764.488282925873	9.069558604989629
5871.766390733255	9.171431091305024
5981.040962380944	9.270603746642626
6092.349152400711	9.36351647903458
6205.7288067765	9.458158333186002
6321.218475812449	9.554561488347062
6438.857427240419	9.652758722629246
6558.685659571435	9.752783424150266
6680.743915695614	9.85466960238639
6805.073696735207	9.95845189973603
6931.7172761554075	10.064165603298528
7060.717714137772	10.17184665687214
7192.118872221193	10.272835744018924
7325.9654282152305	10.37128309151827
7462.302891391108	10.471562560905985
7601.17761795533	10.573708248282161
7742.63682681127	10.677754884281102
7886.728615614156	10.783737845880147
8033.501977124734	10.891693168428176
8183.006815867389	11.001657557898067
8335.293965098195	11.113668403367098
8490.415204088747	11.227763789729616
8648.423275731726	11.330938918496523
8809.37190447399	11.435571404647302
8973.31581458352	11.542151119169194
9140.310748756232	11.650714300313517
9310.413487069076	11.761297860731604
9483.681866285928	11.87393940002553
9660.174799522645	11.988677217532342
9839.952296278227	12.10555032534628
10023.075482838643	12.224598461583293
10209.606623060476	12.34242795348761
10399.609139541202	12.452938983605582
10593.147635183701	12.565506642798164
10790.287915161836	12.68016920528238
10991.097009294961	12.796965657564945
11195.643194838794	12.915935711698118
11403.996019700331	13.03711981878216
11616.226326085018	13.160559182719238
11832.40627458378	13.28629577422313
12052.609368708414	13.41437234508974
12276.910479883603	13.534851132778455
12505.385872903913	13.649914087810645
12738.113231864785	13.767118384014632
12975.171686575868	13.886503872113986
13216.641839466038	14.008111144461024
13462.60579298911	14.131981548838658
13713.147177539457	14.258157202519037
13968.351179887397	14.386681006583943
14228.30457214352	14.517596660511598
14493.095741262152	14.650948677034924
14762.81471909391	14.786782397276406
15037.553212997384	14.925144006164485
15317.404637020798	15.06608054813703
15602.46414366368	15.209639943136875
15892.828656229764	15.355871002905156
16188.596901781992	15.50482344757783
16489.86944471065	15.656547922590999
16796.74872092653	15.811096015900985
17109.339072690134	15.968520275524751
17427.746784089173	16.12454914810871
17752.08011717636	16.26219940733727
18082.44934877952	16.402411361312076
18418.96680799711	16.54523268360825
18761.746914391195	16.690711935014264
19110.90621689136	16.8388985800431
19466.563433422634	16.98984300375079
19828.839491270715	17.14359652886775
20197.857568198782	17.300211433249224
20573.743134329117	17.4597409676502
20956.623994804308	17.622239373831274
21346.630333242454	17.787761903001478
21743.8947560008	17.956364834604166
22148.552337263594	18.12810549545278
22560.74066496859	18.30304227922248
22980.599887588487	18.48123466630468
23408.272761782944	18.662743244030995
23843.904700937204	18.847629727273546
24287.643824604504	19.03595697942878
24739.641008868115	19.22778903379163
25200.049937640895	19.402726430871805
25669.02715491952	19.574829150684305
26146.73211801092	19.750134731396805
26633.327251749808	19.928702778795657
27128.978003724646	20.11059400794102
27633.85290053167	20.295870263810656
28148.123605075813	20.484594542327912
28671.9649749377	20.676831011780916
29205.555121827452	20.872645034640623
29749.075472144435	21.0721031897847
30302.71082866393	21.275273295134955
30866.649433372746	21.482224430716435
31441.083031472648	21.693026962145037
32026.206936576502	21.894756806551666
32622.220097116733	22.088250250533303
33229.325163989684	22.285344640431457
33847.72855945983	22.486106990462453
34477.64054734464	22.690605561988416
35119.275304507275	22.89890988672713
35772.850993678774	23.11109079039348
36438.58983763541	23.32722041678086
37116.71819475767	23.547372252291105
37807.46663599349	23.77162115092032
38511.07002325569	24.00004335971032
39227.76758927724	24.23271654467333
39957.803018952654	24.469719817199184
40701.42453219439	24.703500959109228
41458.88496832911	24.921071697915572
42230.44187206672	25.142691465192065
43016.357581068	25.36843561404753
43816.89931514195	25.598380899924884
44632.33926710398	25.83260550669898
45462.95469532399	26.071189073259852
46309.02801799737	26.31421272059085
47170.84690917022	26.561759079350626
48048.70439655134	26.813912317968388
48942.898961145314	27.070758171262206
49853.73463873893	27.332383969589678
50781.5211232767	27.598878668541218
51726.57387216025	27.86961841816842
52689.21421350677	28.11433342816779
53669.76945540476	28.36360262614297
54668.57299720181	28.617510766307113
55685.96444286409	28.8761441801637
56722.28971644549	29.139590805860202
57777.90117970507	29.407940218087905
58853.15775191451	29.681283658538423
59948.42503189409	29.95971406692675
61064.07542232036	30.24332611259177
62200.48825634718	30.532216226684938
63358.04992658254	30.82648263495773
64537.15401646702	31.126225391159664
65738.20143409586	31.43154641105754
66961.60054853215	31.714783186486315
68207.76732865692	31.99505341420097
69477.1254846024	32.280539518543016
70770.10661181889	32.57133856786404
72087.15033782135	32.867549436974116
73428.70447166757	33.169272840760385
74795.2251562183	33.47661136843119
76187.17702322999	33.789669518397396
77605.0333513357	34.10855373380319
79049.2762269642	34.43337243871775
80520.3967082547	34.76423607500061
82018.89499202212	35.101257139853146
83545.28058382872	35.444550224068706
85100.07247122246	35.77587490184445
86683.79930019774	36.090899670827746
88296.99955494083	36.41178710436517
89940.22174092053	36.73864630764166
91614.0245713852	37.07158841630814
93318.97715733238	37.410726634269
95055.6592010119	37.756176272172496
96824.66119303113	38.1080547866177
98626.5846131283	38.46648182009101
100462.04213468131	38.83157924164571
102331.6578330245	39.20347118833906
104236.06739764012	39.582284107439996
106175.9183482999	39.96814679942269
108151.87025522892	40.35758284924105
110164.59496336569	40.730133082605015
112214.77682079803	41.10961653920352
114303.11291144787	41.49194683992901
116430.31329208757	41.87604929074247
118597.10123376705	42.26729995352294
120804.21346773289	42.6602923831237
123052.40043592616	43.05675851922498
125342.42654613995	43.45733621992183
127675.07043192645	43.86068329220629
130051.12521734099	44.26786579722157
132471.39878661174	44.67639430725259
134936.71405883064	45.08458764160641
137447.90926775365	45.5003775233691
140005.8382468096	45.92390532558053
142611.37071941298	46.35531505225694
145265.39259467812	46.79341058927888
147968.80626863963	47.21961583237562
150722.53093107554	47.65375282756774
153527.5028780421	48.09596918611141
156384.6758302248	48.54641526633337
159295.0212572123	49.0052442247543
162259.5287078087	49.45165073009121
165279.2061464897	49.8991925007226
168355.08029612005	50.35506309985724
171488.19698705408	50.819417528411
174679.62151272458	51.29241367189277
177930.43899185772	51.774212354087844
181241.75473742394	52.264977391739556
184614.69463245457	52.76487565024846
188050.40551285836	53.247118242973684
191550.05555735278	53.728898024548926
195114.83468466165	54.21964380983699
198745.9549580986	54.719522457692655
202444.65099768018	55.228703932242134
206212.18039991445	55.74736136067337
210049.82416539153	56.27567109210031
213958.88713434216	56.81381275752416
217940.6984302958	57.33808619818743
221996.61191199525	57.863565027463615
226128.00663372796	58.398823107166116
230336.28731421314	58.94404243080917
234622.88481422624	59.49940837883754
238989.25662310526	60.051892232119656
243436.8873543108	60.60091744378018
247967.289250216	61.16016010804977
252582.00269627848	61.72981037345983
257282.5967447932	62.310061927238564
262070.66964838552	62.89122575986256
266947.8494034318	63.45279936524489
271915.7943036019	64.02482395097863
276976.1935036891	64.60749401158621
282130.76759394706	65.20100766116647
287381.2691851069	65.80556670075539
292729.4835042813	66.42137668694026
298177.22900196735	67.04864700175192
303726.35797033116	67.68759092385595
309378.7571730137	68.33842570107045
315136.34848664823	68.97016088536728
321001.08955431683	69.58768271412698
326974.9744511768	70.21669672919509
333060.03436245886	70.85741680211403
339258.33827409917	71.51006078461235
345571.9936762143	72.1748505826763
352003.14727966755	72.85201223200004
358553.9857459817	73.54177597484093
365226.7364308176	74.24437633830345
372023.6681413066	74.96005221408166
378947.09190746717	75.63602260689163
385999.3617679763	76.31506660760257
393182.87557057705	77.00674773271031
400500.07578736113	77.71130116124989
407953.4503452449	78.42896644897856
415545.53347188793	79.15998760982698
423278.90655735444	79.90461319886626
431156.19903182285	80.66309639682021
439180.0892596086	81.43569509614845
447353.3054498463	82.21248188089876
455678.6265841069	82.94553505574258
464158.8833612772	83.69223047490345
472796.9591600391	84.45282202286978
481595.7910192351	85.22756830896286
490558.37063650455	86.01673275526784
499687.7453854889	86.8205836861997
508987.01935196744	87.63939441973605
518459.3543892913	88.47344336034925
528107.971193433	89.32301409366556
537936.1503980698	90.16839526715258
547947.2336900292	91.00496080437568
558144.6249454955	91.8484604454287
568531.7913873753	92.70172500088589
579112.2647641759	93.54879878885427
589889.6425508494	94.40375676745006
600867.5891719693	95.27462565950381
612049.837247669	96.16170156982204
623440.1888627864	97.06528611377276
635042.5168595962	97.98141657201074
646860.7661546321	98.87137595427991
658898.9550799957	99.77789763208513
671161.1767496273	100.7012898325642
683651.6004510239	101.64186651901507
696374.4730628222	102.59994749764545
709334.1204987989	103.55382655028177
722534.9491787221	104.49746086681169
735981.4475265756	105.45865637853704
749678.1874966876	106.43773990228897
763629.8261282241	107.43504433701474
777841.1071286482	108.45090877696808
792316.8624866261	109.44387753287423
807062.014114949	110.44442380679591
822081.5755240541	111.46359041712442
837380.653526649	112.50172389148834
852964.4499741016	113.55917720645475
868838.2635251193	114.62419867870142
885007.4914473438	115.63790922617991
901477.6314524917	116.6704850994359
918254.2835656282	117.72227738539215
935343.1520292377	118.79364370475876
952750.04724273	119.8849483336283
970480.8877380306	120.99656232733298
988541.7021919574	122.12886364660828
1006938.6314760271	123.2822372861031
1025677.9307444209	124.45707540528235
1044765.9715608052	125.65377746176539
1064209.2440647245	126.87275034714544
1084014.359178331	128.00980325508385
1104188.0508541602	129.14947801238156
1124737.1783647507	130.31036231083505
1145668.7286348727	131.49285086361428
1166989.8186171474	132.69734572956807
1188707.6977119034	133.9242564499293
1210829.7502320395	135.17400018756263
1233363.4979137748	136.44700186880465
1256316.6024741214	137.7436943279436
1279696.8682159416	139.06451845438693
1303512.244681509	140.4099233425695
1327770.8293554292	141.68853841996375
1352480.870417874	142.91652195125712
1377650.769549055	144.16735846501675
1403289.084785873	145.4414732591346
1429404.533431761	146.7392995463692
1456005.9950206485	148.0612786016422
1483102.5143361029	149.40785991207642
1510703.3044866556	150.77950132982684
1538817.7500383463	152.17666922775442
1567455.410205595	153.59983865799893
1596626.022101425	155.04949351350103
1626339.5040481905	156.52612669253148
1656605.9589499151	158.0302402662818
1687435.6777273756	159.5623456495734
1718839.1428171457	161.1229637747449
1750827.0317357269	162.71262526877453
1783410.2207100063	164.25257323452917
1816599.7883753285	165.67307156057848
1850407.019542302	167.1200056021817
1884843.4090337954	168.59386733250363
1919920.6655932867	170.09515788041338
1955650.715865947	171.62438770087297
1992045.7084538713	173.18207674849924
2029118.018046678	174.76875465435174
2066880.2496290822	176.3849609060149
2105345.242766708	178.03124503102885
2144526.0759716653	179.70816678373401
2184436.0711494284	181.41629633559563
2225088.7981283693	183.1562144690657
2266498.079273693	184.92851277505707
2308677.994187172	186.73379385409035
2351642.884494346	188.57267152118337
2395407.3587208795	190.41928967257294
2439986.29725955	192.1451765514123
2485394.8574297987	193.90318247873688
2531648.478631358	195.69390519550439
2578762.8875937983	197.51795356673267
2626754.1037238385	199.37594778852267
2675638.4445520453	201.26076584663707
2725432.531281028	203.0835977690995
2776153.294436804	204.94035290380486
2827817.979625338	206.83166256750462
2880444.1533962977	208.75816982586394
2934049.7092157872	210.7205297121078
2988652.8735503824	212.71916504424476
3044272.212064306	214.64438732972053
3100926.6359319235	216.60543832951666
3158635.408267819	218.60298482210393
3217418.1506763715	220.63770599481256
3277294.849923382	222.7102936747652
3338285.8647317644	224.82145256410521
3400411.9327037027	226.86296117410492
3463694.1773717343	228.93416683301743
3528154.115380883	231.04391798167012
3593813.6638046256	233.19293195818597
3660695.147596906	235.38193945047257
3728821.30718283	237.61168474466288
3798215.306190736	239.76176867251579
3868900.7393279755	241.93153863556608
3940901.6404034477	244.14168838682806
4014242.490499326	246.39296940103142
4088948.226294856	248.68614713797754
4165044.248545185	251.02200130280664
4242556.430717777	253.4013261111025
4321511.127789762	255.81312596989108
4401935.185208879	258.11079619172887
4483855.948021182	260.4512264473568
4567301.270168747	262.83521250828073
4652299.523960189	265.2635649554477
4738879.609717651	267.73710945485504
4827070.965603188	270.256687038285
4916903.577628021	272.8231543892633
5008407.989848212	275.3859793588179
5101615.314749834	277.86436992237395
5196557.243827658	280.3888837560307
5293266.058360566	282.9603792216932
5391774.640387494	285.5797306555264
5492116.483887789	288.24782866524214
5594325.706169377	290.9655804329113
5698437.059469136	293.7339100234184
5804485.942768984	296.4567602616945
5912508.413831869	299.1300854850227
6022541.201461928	301.85316174563985
6134621.717992506	304.62691491881446
6248788.072006888	307.4522881105126
6365079.081295578	310.33024197806265
6483534.286054714	313.26175505678816
6604193.962330305	316.24782409272393
6727099.135712337	319.17749916731054
6852291.595284058	322.11473781332285
6979813.907830667	325.10663897032646
7109709.432312424	328.15421991695115
7242022.334607315	331.16941542186294
7376797.602527731	334.2199802830897
7514081.061116962	337.3273166754557
7653919.388230155	340.49248112681585
7796360.130405221	343.6120272154713
7941451.71902934	346.78029117757274
8089243.486805938	350.00751707110754
8239785.684528511	353.29190086178176
8393129.498166373	356.52228657436547
8549327.066268368	359.81279031472917
8708431.497690724	363.1645308896006
8870496.889654404	366.55481940520286
9035578.34613892	369.8485661575259
9203731.99661823	373.2036100973608
9375015.015145289	376.62109197579633
9549485.639791965	380.10217377349454
9727203.192450536	383.64803909577483
9908228.099003788	387.25989357505296
10092621.909870485	390.93896528076937
10280447.320933098	394.5968646116996
10471768.194855202	398.14967786067945
10666649.582795387	401.7686095687554
10865157.746525373	405.4548902117013
11067360.180959744	409.2097731646556
11273325.63710487	413.0345351282798
11483124.145435112	416.9304765628531
11696827.039703846	420.8989221304414
11914506.981197748	424.83503569457747
12136237.983442418	428.7586182426157
12362095.43736769	432.75521932949346
12592156.13694151	436.74768158343943
12826498.3052806	440.78872957852406
13065201.621247198	444.9049821644057
13308347.24654076	448.995784187062
13556017.853293689	453.15781602040124
13808297.652180923	457.3805157810307
14065272.421052365	461.58883531630795
14327029.534098294	465.87547239420746
14593657.991557576	470.218395868561
14865248.449978571	474.55721212427386
15141893.25304352	478.9193481749174
15423686.462966274	483.362664319707
15710723.89247449	487.8886713340079
16003103.137387017	492.361127622765
16300923.60979741	496.9156099319856
16604286.571875297	501.55485193195324
16913295.17029647	506.1844782669738
17228054.471313924	510.85290726427684
17548671.49648152	515.6082165195813
17875255.259042356	520.4003523915453
18207916.800994623	525.1855791875519
18546769.230846975	530.0598598684671
18891927.762076642	535.020022117705
19243509.75230332	539.9249691510681
19601634.743191857	544.9211980833277
19966424.501097932	550.0104076861546
20338003.0584698	555.0827492344537
20716496.75602067	560.2039773418281
21102034.285685964	565.4205123756888
21494746.734379806	570.6709296451348
21894767.628566206	575.9202847925906
