# Frequency (Hz)	Imaginary Part (Ohm/m)
1000000000.0	528705.8134888712
1000299648.0731912	529819.29035314
1000599385.9353502	530933.1008686059
1000899213.613382	532047.2451352463
1001199131.1341999	533161.7232530698
1001499138.524729	534578.4309406783
1001799235.8118906	536511.2820635005
1002099423.0226262	538444.712361438
1002399700.1838809	540378.7220080383
1002700067.3226085	542313.3111769026
1003000524.4657704	544248.4800416838
1003301071.6403363	546184.2287760865
1003601708.873284	547837.1402541783
1003902436.1916034	549259.1713130365
1004203253.6222801	550681.6284807415
1004504161.1923205	552104.5118849967
1004805158.9287343	553527.821653522
1005106246.8585398	554951.5579140767
1005407425.0087634	556375.720794459
1005708693.4064394	556684.7679828879
1006010052.0786104	556613.6139714923
1006311501.0523309	556542.4386389331
1006613040.3546513	556471.2419788238
1006914670.0126427	556400.0239847725
1007216390.05338	556328.7846503864
1007518200.5039461	556257.5239692711
1007820101.3914322	554809.124436605
1008122092.7429374	553295.1623250501
1008424174.5855694	551780.7465576653
1008726346.9464434	550265.8769985135
1009028609.8526872	548750.5535115971
1009330963.3314245	547234.7759609376
1009633407.4097989	545649.9062125483
1009935942.1149588	543746.8783563214
1010238567.47406	541843.2802614645
1010541283.5142671	539939.1117571067
1010844090.2627523	538034.3726723255
1011146987.7466962	536129.0628361475
1011449975.9932919	534223.1820775217
1011753055.0297275	532707.3967481685
1012056224.8832124	531743.598495224
1012359485.5809599	530779.51144199
1012662837.1501911	529815.1355019284
1012966279.6181355	528850.4705884744
1013269813.0120307	527885.5166150378
1013573437.3591226	526920.2734950022
1013877152.686665	527033.686350024
1014180959.0219244	527691.9066646688
1014484856.3921626	528350.3242137538
1014788844.8246621	529008.9390563886
1015092924.3467097	529667.751251692
1015397094.9856002	530326.7608588001
1015701356.7686367	530985.9679368676
1016005709.7231301	532740.4612463826
1016310153.8763999	534579.9484800596
1016614689.2557777	536419.986912567
1016919315.8885912	538260.5767090209
1017224033.802188	540101.71803466
1017528843.0239207	541943.4110547501
1017833743.5811493	543767.9203637884
1018138735.5012424	545524.5411598828
1018443818.8115767	547281.6883240145
1018748993.5395371	549039.3620139079
1019054259.7125208	550797.5623873597
1019359617.357921	552556.2896021421
1019665066.5031512	554315.543816145
1019970607.1756293	555430.5123103758
1020276239.4027811	555892.5959443812
1020581963.212041	556354.8180408572
1020887778.6308511	556817.1786412935
1021193685.6866623	557279.6777871931
1021499684.4069334	557742.3155200707
1021805774.8191355	558205.0918814597
1022111956.9507358	557375.0182831903
1022418230.8292217	556223.8497528794
1022724596.4820852	555072.3362771363
1023031053.9368263	553920.4777525988
1023337603.2209533	552768.2740758737
1023644244.3619826	551615.7251435372
1023950977.387439	550366.4399288135
1024257802.3248595	548403.2828365222
1024564719.2017772	546439.5374880168
1024871728.0457457	544475.2037070015
1025178828.8843229	542510.2813171531
1025486021.7450744	540544.7701420978
1025793306.6555749	538578.670005405
1026100683.6434066	536864.3616283385
1026408152.7361606	535457.797828215
1026715713.96144	534050.8125539403
1027023367.3468436	532643.4056792586
1027331112.9199915	531235.5770778181
1027638950.7085073	529827.3266232504
1027946880.7400234	528418.654189147
1028254903.0421801	528239.9200899504
1028563017.642626	528379.0826920794
1028871224.5690184	528518.286994014
1029179523.8490224	528657.5330082496
1029487915.5103158	528796.8207472868
1029796399.5805721	528936.1502236248
1030104976.0874857	529298.7550634976
1030413645.0587549	530903.3596492436
1030722406.5220867	532508.4450516626
1031031260.5051961	534114.0114148295
1031340207.0358064	535720.0588828636
1031649246.1416492	537326.5875999265
1031958377.850469	538933.5977102465
1032267602.1900054	540731.4156708117
1032576919.1880194	542703.1834309427
1032886328.8722758	544675.5420274837
1033195831.270548	546648.4916374779
1033505426.4106174	548622.0324380207
1033815114.320274	550596.1646062625
1034124895.027316	552570.888319404
1034434768.5595499	553642.8981058367
1034744734.9447951	554622.9611033985
1035054794.2108661	555603.3177749353
1035364946.3855987	556583.9682084597
1035675191.4968328	557564.9124919971
1035985529.5724168	558546.1507135988
1036295960.6402072	559019.3669685593
1036606484.7280688	558331.3414173793
1036917101.8638752	557643.1097006684
1037227812.0755119	556954.6717566403
1037538615.3908607	556266.0275235183
1037849511.837824	555577.1769394787
1038160501.4443086	554888.1199426888
1038471584.2382296	553350.6072361217
1038782760.2475104	551473.8663859997
1039094029.5000829	549596.563174098
1039405392.023887	547718.6974319061
1039716847.8468758	545840.2689908374
1040028396.9969976	543961.2776823308
1040340039.502222	542098.6294499643
1040651775.3905224	540341.2269758085
1040963604.6898812	538583.2978993866
1041275527.4282887	536824.8420629046
1041587543.6337438	535065.8593085193
1041899653.3342535	533306.349478341
1042211856.5578338	531546.3124144321
1042524153.3325126	530562.485068457
1042836543.686314	530155.1989219974
1043149027.647283	529747.7907330288
1043461605.2434688	529340.2604649814
1043774276.502929	528932.6080812743
1044087041.4537296	528524.833545316
1044399900.1239452	528154.6354659908
1044712852.5416584	529396.7259551057
1045025898.7349648	530639.1886342596
1045339038.7319558	531882.0236149448
1045652272.5607433	533125.2310087368
1045965600.2494441	534368.8109272288
1046279021.8261832	535612.7634820476
1046592537.3190938	537245.6478119361
1046906146.7563177	539292.2501416178
1047219850.1660054	541339.465731745
1047533647.5763195	543387.2947661065
1047847539.0154186	545435.7374284646
1048161524.5114828	547484.79390272
1048475604.0926958	549534.4643727991
1048789777.7872502	551001.9705082992
1049104045.6233468	552445.1487795507
1049418407.629195	553888.7594963901
1049732863.8330125	555332.8027883994
1050047414.2630255	556777.2787851986
1050362058.947473	558222.1876164662
1050676797.9145899	558952.4100134952
1050991631.1926317	558796.4338146467
1051306558.8098587	558640.4108778306
1051621580.7945393	558484.3411890421
1051936697.1749507	558328.2247342721
1052251907.9793782	558172.0614995073
1052567213.236116	558015.85147073
1052882612.9734708	556451.453975565
1053198107.2197449	554807.0750793974
1053513696.0032619	553162.2034482625
1053829379.3523499	551516.8389345126
1054145157.2953451	549870.9813904567
1054461029.8605925	548224.6306683585
1054776997.0764453	546421.8277097901
1055093058.9712658	544434.7799475854
1055409215.573424	542447.136770348
1055725466.911303	540458.8979996357
1056041813.013282	538470.0634570331
1056358253.9077607	536480.6329639922
1056674789.6231438	534490.6063419374
1056991420.1878442	533533.5379688148
1057308145.630283	532592.549297246
1057624965.9788905	531651.2786602344
1057941881.262105	530709.7259732903
1058258891.5083778	529767.8911518847
1058575996.7461557	528825.7741115026
1058893197.0039072	528779.8396716715
1059210492.3101047	529554.3574441355
1059527882.6932294	530329.1072993577
1059845368.1817708	531104.0893068808
1060162948.8042271	531879.3035362695
1060480624.589105	532654.7500571084
1060798395.5649241	533516.9142501641
1061116261.7601994	535487.3580938162
1061434223.2034677	537458.3923771696
1061752279.9232699	539430.0172771483
1062070431.9481553	541402.2329707296
1062388679.3066819	543375.0396349429
1062707022.0274162	545348.4374468719
1063025460.1389335	547220.701534874
1063343993.6698174	549035.0699434392
1063662622.6486644	550849.9820240261
1063981347.1040665	552665.4379394962
1064300167.0646377	554481.437852834
1064619082.5589957	556297.9819270466
1064938093.6157671	557818.7517150235
1065257200.263587	558226.2196427983
1065576402.531099	558633.8096675524
1065895700.4469554	559041.521825872
1066215094.0398216	559449.3561543601
1066534583.338358	559857.3126896132
1066854168.3712472	560265.391468256
1067173849.1671755	559328.5968054676
1067493625.7548386	558050.1328389974
1067813498.1629399	556771.2857832635
1068133466.420192	555492.0555234732
1068453530.5553159	554212.4419448006
1068773690.5970455	552932.4449323668
1069093946.5741104	551337.2565866429
1069414298.5152617	549263.9582455494
1069734746.4492549	547190.0386446023
1070055290.4048542	545115.4975976422
1070375930.410832	543040.3349184552
1070696666.4959699	540964.5504207701
1071017498.6890576	538894.2235529576
1071338427.0188938	537473.6243720275
1071659451.5142902	536052.5995112703
1071980572.2040536	534631.1488431712
1072301789.117013	533209.2722401185
1072623102.2820014	531786.9695744812
1072944511.7278606	530364.2407185908
1073266017.4834409	529990.2487351071
1073587619.5776014	530223.3961057726
1073909318.0392098	530456.6133385985
1074231112.8971467	530689.9004545221
1074553004.1802883	530923.2574744772
1074874991.917533	531156.6844194138
1075197076.1377823	531797.6421058981
1075519256.869948	533542.0052701841
1075841534.1429489	535286.89112953
1076163907.985714	537032.2998405629
1076486378.4271798	538778.2315599526
1076808945.496292	540524.686444418
1077131609.2220097	542271.664650749
1077454369.6332862	544308.2805880075
1077777226.7590983	546371.2731635274
1078100180.628426	548434.8839107979
1078423231.2702584	550499.1130150519
1078746378.7135932	552563.9606615803
1079069622.9874368	554629.4270357271
1079392964.120804	556055.8885268441
1079716402.1427236	557017.0116773269
1080039937.0822184	557978.4228264957
1080363568.9683347	558940.1220606636
1080687297.8301222	559902.1094661546
1081011123.696639	560864.3851293168
1081335046.5969532	561383.7441235996
1081659066.56014	560581.8511071895
1081983183.6152844	559779.7178050816
1082307397.7914846	558977.3441452642
1082631709.1178334	558174.730055737
1082956117.6234462	557371.8754644442
1083280623.3374429	556568.7802993197
1083605226.2889512	554641.5719065301
1083929926.5071087	552636.5138018881
1084254724.0210607	550630.8548854499
1084579618.8599622	548624.5949771802
1084904611.0529761	546617.7338969953
1085229700.6292787	544610.2714647286
1085554887.6180422	542728.3332549382
1085880172.0484602	540919.2539888112
1086205553.949731	539109.6326355675
1086531033.3510618	537299.4690327715
1086856610.2816677	535488.7630179416
1087182284.770774	533677.5144285412
1087508056.847613	532365.5439856943
1087833926.541432	532021.9002994576
1088159893.8814719	531678.1536410574
1088485958.8969975	531334.3039796333
1088812121.6172767	530990.3512843205
1089138382.0715866	530646.2955242452
1089464740.289213	530406.4368246271
1089791196.2994504	531785.8787220516
1090117750.1316023	533165.7339665828
1090444401.814985	534546.0026820973
1090771151.378911	535926.6849924546
1091097998.8527143	537307.7810216063
1091424944.2657335	538689.2908935226
1091751987.6473155	540691.4954359024
1092079129.0268166	542856.7861213906
1092406368.4336019	545022.7256320616
1092733705.897045	547189.3141623341
1093061141.446528	549356.5519066838
1093388675.111447	551524.4390596782
1093716306.9211934	553314.2787374485
1094044036.90518	554776.937466599
1094371865.092825	556240.03447862
1094699791.5135548	557703.5699048422
1095027816.1968045	559167.5438766337
1095355939.1720188	560631.9565254061
1095684160.46865	561597.7846166649
1096012480.1161652	561350.8351225798
1096340898.1440256	561103.8116305581
1096669414.581715	560856.7141184229
1096998029.4587224	560609.5425639943
1097326742.8045442	560362.2969450859
1097655554.6486866	560025.2256319344
1097984465.020665	558244.4965610021
1098313473.9500022	556463.2338980362
1098642581.4662313	554681.4374831446
1098971787.598898	552899.107156367
1099301092.3775434	551116.2427577651
1099630495.8317313	549332.8441272818
1099959997.9910297	547307.4113364782
1100289598.885015	545234.4039238215
1100619298.5432732	543160.7753384871
1100949096.9953988	541086.5253943426
1101278994.2709951	539011.6539051982
1101608990.399679	536936.1606847821
1101939085.4110622	535589.6672353008
1102269279.3347797	534676.0749136512
1102599572.2004702	533762.2088358229
1102929964.0377817	532848.0689197845
1103260454.8763704	531933.6550834823
1103591044.7459023	531018.9672448356
1103921733.6760514	530882.3758990975
1104252521.6965058	531781.0568525615
1104583408.8369486	532680.0070940296
1104914395.1270857	533579.2267042055
1105245480.5966268	534478.715763805
1105576665.2752907	535378.4743535676
1105907949.1928058	536571.31796406
1106239332.3789082	538679.5419739422
1106570814.863344	540788.3977090879
1106902396.6758673	542897.8853587903
1107234077.8462465	545008.0051124314
1107565858.404245	547118.757159363
1107897738.379648	549214.0307940497
1108229717.8022463	551086.1132997051
1108561796.701839	552958.7567712759
1108893975.1082342	554831.9613768555
1109226253.0512486	556705.7272845844
1109558630.5607085	558580.0546626585
1109891107.6664534	560454.9436793457
1110223684.3983176	560950.1546184968
1110556360.7861588	561297.6714177049
1110889136.8598387	561645.2923496524
1111222012.6492279	561993.0174455423
1111554988.1842058	562340.846736587
1111888063.4946613	562688.7802540087
1112221238.6104918	561714.7990028082
1112554513.5616083	560301.5005448249
1112887888.377917	558887.7785947019
1113221363.0893474	557473.6330255198
1113554937.7258325	556059.0637103424
1113888612.3173146	554644.0705221954
1114222386.8937452	552758.2482683947
1114556261.4850843	550570.4538820864
1114890236.1213014	548382.0039274057
1115224310.832375	546192.8982079108
1115558485.6482964	544003.1365270776
1115892760.5990531	541812.7186884037
1116227135.7146547	539985.3655314727
1116561611.0251153	538552.2141914949
1116896186.5604582	537118.6334104792
1117230862.3507156	535684.6230597446
1117565638.4259288	534250.1830105713
1117900514.8161478	532815.3131342017
1118235491.5514364	532018.5353236562
1118570568.661854	532352.4840230315
1118905746.177482	532686.5327894909
1119241024.1284065	533020.6816530195
1119576402.5447233	533354.9306436114
1119911881.456536	533689.2797912691
1120247460.8939583	534418.0548988259
1120583140.8871126	536309.1266245007
1120918921.46613	538200.7650061742
1121254802.6611555	540092.9702136694
1121590784.5023293	541985.7424167839
1121926867.0198145	543879.0817854416
1122263050.2437785	545814.0025865985
1122599334.2043977	547969.6920628096
1122935718.9318578	550126.0274872191
1123272204.4563532	552283.0090533823
1123608790.8080878	554440.6369549171
1123945478.017279	556598.9113855253
1124282266.1141386	558670.1101246907
1124619155.128903	559607.8744740806
1124956145.0918112	560545.9198227504
1125293236.0331125	561484.2462549014
1125630427.983065	562422.8538547597
1125967720.9719355	563361.7427065773
1126305115.0300002	564300.9128946299
1126642610.1875489	563381.3792372594
1126980206.4748669	562457.1947286554
1127317903.9222617	561532.7332899445
1127655702.560046	560607.994838145
1127993602.418541	559682.9792902506
1128331603.5280778	558757.6865632286
1128669705.9189959	556697.8482130966
1129007909.6216435	554557.9170207134
1129346214.6663795	552417.3446020692
1129684621.0835745	550276.1307649966
1130023128.9035962	548134.2753173509
1130361738.1568334	545991.7780668497
1130700448.8736813	544097.6581013232
1131039261.0845428	542236.1628976996
1131378174.8198304	540374.1099006247
1131717190.1099656	538511.4989429587
1132056306.9853795	536648.3298575064
1132395525.4765162	534784.6024770024
1132734845.6138155	534257.4775382322
1133074267.4277403	533982.6104805747
1133413790.9487576	533707.6610595329
1133753416.2073438	533432.6292504269
1134093143.2339842	533157.5150285693
1134432972.0591738	532882.3183692651
1134772902.7134159	534066.1756930402
1135112935.2272282	535590.5610886363
1135453069.6311233	537115.4032633577
1135793305.9556375	538640.7023540998
1136133644.2313106	540166.4584977753
1136474084.488692	541692.6718313381
1136814626.7583408	543821.1619582406
1137155271.0708246	546108.7703305864
1137496017.45672	548397.0641803718
1137836865.9466138	550686.0437130018
1138177816.5711052	552975.7091339686
1138518869.3607898	555266.0606487362
1138860024.3462856	556921.3533058754
1139201281.5582154	558400.957639196
1139542641.0272114	559881.0053331052
1139884102.7839143	561361.4965204528
1140225666.858975	562842.431334133
1140567333.2830524	564323.8099070765
1140909102.0868201	564370.2358106794
1141250973.3009467	564024.1315463416
1141592946.956124	563677.9235725275
1141935023.083048	563331.6118581613
1142277201.7124245	562985.1963721571
1142619482.8749678	562638.6770834201
1142961866.601402	561031.3991184577
1143304352.92246	559105.0421842705
1143646941.8688893	557178.1080209113
1143989633.4714313	555250.5964554712
1144332427.7608516	553322.5073149044
1144675324.7679205	551393.8404261403
1145018324.5234168	549273.6222109097
1145361427.0581288	547111.4111495547
1145704632.4028542	544948.552185822
1146047940.5884001	542785.0451255665
1146391351.6455822	540620.88977459
1146734865.6052306	538456.0859386029
1147078482.4981701	537389.1400901171
1147422202.35525	536506.0713028621
1147766025.2073226	535622.7379057464
1148109951.0852501	534739.1398194812
1148453980.0199046	533855.276964751
1148798112.0421662	532971.1492622201
1149142347.1829255	533812.4556281865
1149486685.4730859	534842.6627553138
1149831126.943547	535873.1785820083
1150175671.6252308	536904.0032007839
1150520319.5490646	537935.1367041705
1150865070.745985	538966.5791847252
1151209925.246937	541165.5135144899
1151554883.082876	543417.3994812972
1151899944.2847657	545669.9602213954
1152245108.8835795	547923.1959369772
1152590376.9103053	550177.1068303325
1152935748.3959253	552424.0859422995
1153281223.3714452	554353.4909347402
1153626801.867876	556283.4740696705
1153972483.9162376	558214.0355203289
1154318269.5475588	560145.1754600058
1154664158.7928782	562076.8940620447
1155010151.6832433	563843.7940304528
1155356248.2497163	564124.1213825699
1155702448.5233538	564404.532734234
1156048752.5352361	564685.0281106192
1156395160.3164485	564965.6075369035
1156741671.8980849	565246.2710382723
1157088287.311249	565182.7315567647
1157435006.587054	563625.5660906407
1157781829.7566218	562067.9340228856
1158128756.851089	560509.835213661
1158475787.9015868	558951.2695231517
1158822922.9392703	557392.236811436
1159170161.9952986	555619.6614142648
1159517505.1008413	553312.0547473397
1159864952.2870762	551003.7566105231
1160212503.5851912	548694.7667966164
1160560159.026383	546385.085098362
1160907918.6418576	544074.7113084374
1161255782.4628358	542104.6928381103
1161603750.5205328	540660.5363647201
1161951822.846188	539215.9471526247
1162299999.471045	537770.9250721554
1162648280.4263566	536325.4699936047
1162996665.7433853	534879.5817872246
1163345155.4534032	534399.3137099028
1163693749.587691	534840.9965134447
1164042448.1775446	535282.8116663941
1164391251.2542536	535724.7592083963
1164740158.8491328	536166.8391791283
1165089170.9935002	536609.0516182713
1165438287.7186844	538077.7737096641
1165787509.0560226	540123.0383827584
1166136835.0368617	542168.9159154709
1166486265.6925578	544215.4064914444
1166835801.0544813	546262.5102944028
1167185441.153998	548310.2275080448
1167535186.0224965	550516.3536460851
1167885035.691371	552767.735267361
1168234990.192025	555019.7915108035
1168585049.5558705	557272.5225785588
1168935213.8143299	559525.9286728369
1169285482.9988346	561780.0099959098
1169635857.1408257	562784.9133266624
1169986336.271758	563694.7532903997
1170336920.423082	564604.8658859173
1170687609.6262712	565515.2511949196
1171038403.9128046	566425.909299126
1171389303.3141701	567162.2948016996
1171740307.861865	566107.3011450755
1172091417.5873961	565051.9913616355
1172442632.5222802	563996.3653566517
1172793952.6980476	562940.4230353549
1173145378.1462238	561884.1643029912
1173496908.8983586	560510.9056044224
1173848544.9860058	558229.4513361773
1174200286.4407291	555947.3134345565
1174552133.2941017	553664.4916947102
1174904085.5777059	551380.9859117289
1175256143.3231337	549096.7958806392
1175608306.5619867	546974.8819210721
1175960575.3258803	545060.8695875852
1176312949.6464257	543146.283724015
1176665429.555257	541231.1241584813
