Frequency [GHz]	Zx imag [Ohm/m]	Zy imag [Ohm/m]
1.000000000000000166e-10	5.921640060210886411e+06	1.445249944585910812e+07
1.032794731918951654e-10	5.921639536016131751e+06	1.445249879611087963e+07
1.066664958279539403e-10	5.921638994630552828e+06	1.445249812505433150e+07
1.101645949633656381e-10	5.921638435490377247e+06	1.445249743199066631e+07
1.137774133221491146e-10	5.921637858013351448e+06	1.445249671619816124e+07
1.175087130904807540e-10	5.921637261598119512e+06	1.445249597693143412e+07
1.213623798344240958e-10	5.921636645623611286e+06	1.445249521342065372e+07
1.253424265461399975e-10	5.921636009448383003e+06	1.445249442487074062e+07
1.294529978227915867e-10	5.921635352409958839e+06	1.445249361046054587e+07
1.336983741824946476e-10	5.921634673824137077e+06	1.445249276934198663e+07
1.380829765218092491e-10	5.921633972984273918e+06	1.445249190063916892e+07
1.426113707194128486e-10	5.921633249160555191e+06	1.445249100344747491e+07
1.472882723907502473e-10	5.921632501599232666e+06	1.445249007683262043e+07
1.521185517986104510e-10	5.921631729521836154e+06	1.445248911982968077e+07
1.571072389247450498e-10	5.921630932124367915e+06	1.445248813144208677e+07
1.622595287078087593e-10	5.921630108576464467e+06	1.445248711064058542e+07
1.675807864530767868e-10	5.921629258020527661e+06	1.445248605636217259e+07
1.730765534195724819e-10	5.921628379570838064e+06	1.445248496750898287e+07
1.787525525904235329e-10	5.921627472312625498e+06	1.445248384294714406e+07
1.846146946324547531e-10	5.921626535301122814e+06	1.445248268150559999e+07
1.906690840512252406e-10	5.921625567560579628e+06	1.445248148197489418e+07
1.969220255479172543e-10	5.921624568083244376e+06	1.445248024310589954e+07
2.033800305846981002e-10	5.921623535828317516e+06	1.445247896360852756e+07
2.100498241653915480e-10	5.921622469720867462e+06	1.445247764215038344e+07
2.169383518385184289e-10	5.921621368650710210e+06	1.445247627735537291e+07
2.240527869300018610e-10	5.921620231471251696e+06	1.445247486780227348e+07
2.314005380130653023e-10	5.921619056998297572e+06	1.445247341202326119e+07
2.389892566231049743e-10	5.921617844008818269e+06	1.445247190850236639e+07
2.468268452255692806e-10	5.921616591239673086e+06	1.445247035567390732e+07
2.549214654451423314e-10	5.921615297386299819e+06	1.445246875192085281e+07
2.632815465648021228e-10	5.921613961101353168e+06	1.445246709557314776e+07
2.719157943036017723e-10	5.921612580993299372e+06	1.445246538490596600e+07
2.808331998823172083e-10	5.921611155624971725e+06	1.445246361813791096e+07
2.900430493863991314e-10	5.921609683512072079e+06	1.445246179342916980e+07
2.995549334359813486e-10	5.921608163121623918e+06	1.445245990887959674e+07
3.093787571730138678e-10	5.921606592870379798e+06	1.445245796252672374e+07
3.195247505759212065e-10	5.921604971123166382e+06	1.445245595234373212e+07
3.300034791125284578e-10	5.921603296191188507e+06	1.445245387623732723e+07
3.408258547423451742e-10	5.921601566330264322e+06	1.445245173204556853e+07
3.520031472796679687e-10	5.921599779739014804e+06	1.445244951753561758e+07
3.635469961293320139e-10	5.921597934556985274e+06	1.445244723040140420e+07
3.754694224073336536e-10	5.921596028862705454e+06	1.445244486826123856e+07
3.877828414589456106e-10	5.921594060671692714e+06	1.445244242865532078e+07
4.005000757873611052e-10	5.921592027934381738e+06	1.445243990904317796e+07
4.136343684063274911e-10	5.921589928533997387e+06	1.445243730680103227e+07
4.271993966306778827e-10	5.921587760284340009e+06	1.445243461921905354e+07
4.412092863191189219e-10	5.921585520927515812e+06	1.445243184349854477e+07
4.556786265841064474e-10	5.921583208131585270e+06	1.445242897674902342e+07
4.706224849841281415e-10	5.921580819488131441e+06	1.445242601598522253e+07
4.860564232142136024e-10	5.921578352509757504e+06	1.445242295812396705e+07
5.019965133110081441e-10	5.921575804627487436e+06	1.445241979998096824e+07
5.184593543892912175e-10	5.921573173188102432e+06	1.445241653826751933e+07
5.354620899273606527e-10	5.921570455451368354e+06	1.445241316958705150e+07
5.530224256192902378e-10	5.921567648587185889e+06	1.445240969043160975e+07
5.711586478126431938e-10	5.921564749672645703e+06	1.445240609717819840e+07
5.898896425508497150e-10	5.921561755688979290e+06	1.445240238608500361e+07
6.092349152400710261e-10	5.921558663518422283e+06	1.445239855328750424e+07
6.292146109610343618e-10	5.921555469940960407e+06	1.445239459479443729e+07
6.498495354469890483e-10	5.921552171630981378e+06	1.445239050648365170e+07
6.711611767496282870e-10	5.921548765153811313e+06	1.445238628409781121e+07
6.931717276155404727e-10	5.921545246962135658e+06	1.445238192323995754e+07
7.159041085964887260e-10	5.921541613392306492e+06	1.445237741936894134e+07
7.393819919175865964e-10	5.921537860660529695e+06	1.445237276779467985e+07
7.636298261282244400e-10	5.921533984858920798e+06	1.445236796367328987e+07
7.886728615614152294e-10	5.921529981951436028e+06	1.445236300200202502e+07
8.145371766280743462e-10	5.921525847769673914e+06	1.445235787761408277e+07
8.412497049736117954e-10	5.921521578008529730e+06	1.445235258517321013e+07
8.688382635251186617e-10	5.921517168221712112e+06	1.445234711916815862e+07
8.973315814583522479e-10	5.921512613817119040e+06	1.445234147390693799e+07
9.267593301146878953e-10	5.921507910052048042e+06	1.445233564351088926e+07
9.571521538991863169e-10	5.921503052028262056e+06	1.445232962190856226e+07
9.885417021919573871e-10	5.921498034686888568e+06	1.445232340282940306e+07
1.020960662306046580e-09	5.921492959567302838e+06	1.445231698555677943e+07
1.054442793526168950e-09	5.921487778287938796e+06	1.445231036108318157e+07
1.089022962263730067e-09	5.921482427089908160e+06	1.445230351936175302e+07
1.124737178364752061e-09	5.921476900400772691e+06	1.445229645326790027e+07
1.161622632608501755e-09	5.921471192465347238e+06	1.445228915544339828e+07
1.199717735435884489e-09	5.921465297339710407e+06	1.445228161828869209e+07
1.239062156947916503e-09	5.921459208885008469e+06	1.445227383395502158e+07
1.279696868215940940e-09	5.921452920761068352e+06	1.445226579433621652e+07
1.321664183946605026e-09	5.921446426419787109e+06	1.445225749106026627e+07
1.365007806546013663e-09	5.921439719098325819e+06	1.445224891548060812e+07
1.409772871628966933e-09	5.921432791812054813e+06	1.445224005866711214e+07
1.456005995020649598e-09	5.921425637347288430e+06	1.445223091139679216e+07
1.503755321299737753e-09	5.921418248253767379e+06	1.445222146414419636e+07
1.553070573933460069e-09	5.921410616836904548e+06	1.445221170707148314e+07
1.604003107056820079e-09	5.921402735149772838e+06	1.445220163001818582e+07
1.656605958949914401e-09	5.921394594984823838e+06	1.445219122249062732e+07
1.710933907269014249e-09	5.921386187865346670e+06	1.445218047365099192e+07
1.767043526088946692e-09	5.921377505036641844e+06	1.445216937230604328e+07
1.824993244816152494e-09	5.921368537456896156e+06	1.445215790689546242e+07
1.884843409033795523e-09	5.921359275787777267e+06	1.445214606547981501e+07
1.946656343342262358e-09	5.921349710384702310e+06	1.445213383572811633e+07
2.010496416260498236e-09	5.921339831286797300e+06	1.445212120490498841e+07
2.076430107255774870e-09	5.921329628206525929e+06	1.445210815985740349e+07
2.144526075971667793e-09	5.921319090518971905e+06	1.445209468700097874e+07
2.214855233726359314e-09	5.921308207250778563e+06	1.445208077230584063e+07
2.287490817355702788e-09	5.921296967068723403e+06	1.445206640128200501e+07
2.362508465477946229e-09	5.921285358267911710e+06	1.445205155896429718e+07
2.439986297259550245e-09	5.921273368759588338e+06	1.445203622989675589e+07
2.520004993764092080e-09	5.921260986058553681e+06	1.445202039811655693e+07
2.602647881969005809e-09	5.921248197270158678e+06	1.445200404713736847e+07
2.688001021537606561e-09	5.921234989076876082e+06	1.445198715993220173e+07
2.776153294436799262e-09	5.921221347724436782e+06	1.445196971891566925e+07
2.867196497493770032e-09	5.921207259007500485e+06	1.445195170592567325e+07
2.961225437988034610e-09	5.921192708254869096e+06	1.445193310220450163e+07
3.058338032378433485e-09	5.921177680314205587e+06	1.445191388837928139e+07
3.158635408267817403e-09	5.921162159536257386e+06	1.445189404444181174e+07
3.262222009711669644e-09	5.921146129758557305e+06	1.445187354972773232e+07
3.369205705980266915e-09	5.921129574288594536e+06	1.445185238289500028e+07
3.479697903887691433e-09	5.921112475886432454e+06	1.445183052190166526e+07
3.593813663804627762e-09	5.921094816746755503e+06	1.445180794398291036e+07
3.711671819475765297e-09	5.921076578480326571e+06	1.445178462562736496e+07
3.833395101766601886e-09	5.921057742094839923e+06	1.445176054255260155e+07
3.959110266468459240e-09	5.921038287975139916e+06	1.445173566967985593e+07
4.088948226294862618e-09	5.921018195862800814e+06	1.445170998110791668e+07
4.223044187206674123e-09	5.920997444835023023e+06	1.445168345008614659e+07
4.361537789208003199e-09	5.920976013282853179e+06	1.445165604898663238e+07
4.504573251759458750e-09	5.920953878888674080e+06	1.445162774927540310e+07
4.652299523960189308e-09	5.920931018602971919e+06	1.445159852148273215e+07
4.804870439655131104e-09	5.920907408620329574e+06	1.445156833517243527e+07
4.962444877628916452e-09	5.920883024354634807e+06	1.445153715891018510e+07
5.125186927053329472e-09	5.920857840413483791e+06	1.445150496023076959e+07
5.293266058360561204e-09	5.920831830571734346e+06	1.445147170560429804e+07
5.466857299720180771e-09	5.920804967744197696e+06	1.445143736040126346e+07
5.646141419303669251e-09	5.920777223957432434e+06	1.445140188885650411e+07
5.831305113526221869e-09	5.920748570320618339e+06	1.445136525403194316e+07
6.022541201461928965e-09	5.920718976995467208e+06	1.445132741777813435e+07
6.220048825634711276e-09	5.920688413165150210e+06	1.445128834069452249e+07
6.424033659394191079e-09	5.920656847002211958e+06	1.445124798208842985e+07
6.634708121092347870e-09	5.920624245635421947e+06	1.445120629993266985e+07
6.852291595284060743e-09	5.920590575115548447e+06	1.445116325082178600e+07
7.077010661181889919e-09	5.920555800380001776e+06	1.445111878992685117e+07
7.309099328602911004e-09	5.920519885216325521e+06	1.445107287094878405e+07
7.548799281653435948e-09	5.920482792224484496e+06	1.445102544607014395e+07
7.796360130405233414e-09	5.920444482777919620e+06	1.445097646590532176e+07
8.052039670825474778e-09	5.920404916983325966e+06	1.445092587944912724e+07
8.316104153230961616e-09	5.920364053639103658e+06	1.445087363402365893e+07
8.588828559546249041e-09	5.920321850192463957e+06	1.445081967522347160e+07
8.870496889654407999e-09	5.920278262695103884e+06	1.445076394685889594e+07
9.161402457138517586e-09	5.920233245757454075e+06	1.445070639089754410e+07
9.461848194721997291e-09	5.920186752501402982e+06	1.445064694740386866e+07
9.772146969725725887e-09	5.920138734511481598e+06	1.445058555447675474e+07
1.009262190987047331e-08	5.920089454402740113e+06	1.445052217672905140e+07
1.042360673976401127e-08	5.920039352438434958e+06	1.445045679304711893e+07
1.076544612842315905e-08	5.919987607393642887e+06	1.445038926512486674e+07
1.111849604819270880e-08	5.919934165383977816e+06	1.445031952264250629e+07
1.148312414543511117e-08	5.919878970757932402e+06	1.445024749297413416e+07
1.185971012337669343e-08	5.919821966038922779e+06	1.445017310111209750e+07
1.224864613750930795e-08	5.919763091865436174e+06	1.445009626958888955e+07
1.265033720395903769e-08	5.919702361092740670e+06	1.445001692644183896e+07
1.306520162124721228e-08	5.919640065779025666e+06	1.444993502759088017e+07
1.349367140588306343e-08	5.919575727507196367e+06	1.444985044288906083e+07
1.393619274224142065e-08	5.919509279278991744e+06	1.444976308425462060e+07
1.439322644719406651e-08	5.919440651898955926e+06	1.444967286071718298e+07
1.486524844997857277e-08	5.919369773902390152e+06	1.444957967832302116e+07
1.535275028780422776e-08	5.919296571480927989e+06	1.444948344003722444e+07
1.585623961771137302e-08	5.919220978135933168e+06	1.444938404683489725e+07
1.637624074521687477e-08	5.919143588061679155e+06	1.444928147766583972e+07
1.691329517029648562e-08	5.919063660000686534e+06	1.444917554476837628e+07
1.746796215127245689e-08	5.918981110720361583e+06	1.444906613782994263e+07
1.804081928719382751e-08	5.918895854258516803e+06	1.444895314292029105e+07
1.863246311931559514e-08	5.918807801833863370e+06	1.444883644237287156e+07
1.924350975230330612e-08	5.918716861753547564e+06	1.444871591466228105e+07
1.987459549580983990e-08	5.918622939317677170e+06	1.444859143427773565e+07
2.052637752709252173e-08	5.918526776684196666e+06	1.444846299206084944e+07
2.119953457536071000e-08	5.918427578399740160e+06	1.444833035453625768e+07
2.189476762856620985e-08	5.918325126934138127e+06	1.444819336719960533e+07
2.261280066337277307e-08	5.918219315600186586e+06	1.444805188739996962e+07
2.335438139906479724e-08	5.918110034211903811e+06	1.444790576780823618e+07
2.412028207618007283e-08	5.917997168969790451e+06	1.444775485626366176e+07
2.491130026067788373e-08	5.917880602342317812e+06	1.444759899561543949e+07
2.572825967447932303e-08	5.917761190745404921e+06	1.444743816572403722e+07
2.657201105324503850e-08	5.917638207045018673e+06	1.444727211146978661e+07
2.744343303228365032e-08	5.917511190127148293e+06	1.444710061151078343e+07
2.834343306151309448e-08	5.917380007723506540e+06	1.444692348725659959e+07
2.927294835042816131e-08	5.917244523228105158e+06	1.444674055425998196e+07
3.023294684405776334e-08	5.917104595554998145e+06	1.444655162202478386e+07
3.122442823092858392e-08	5.916960078991363756e+06	1.444635649380758218e+07
3.224842498408442807e-08	5.916811920115538873e+06	1.444615515844437480e+07
3.330600343624588813e-08	5.916659623817141168e+06	1.444594734661748447e+07
3.439826489022924478e-08	5.916502333002464846e+06	1.444573271965744346e+07
3.552634676578139226e-08	5.916339883877688088e+06	1.444551105406378396e+07
3.669142378402493899e-08	5.916172107277413830e+06	1.444528211900640465e+07
3.789470919074667737e-08	5.915998828488511965e+06	1.444504567608519085e+07
3.913745601980383687e-08	5.915819867068180814e+06	1.444480147908176295e+07
4.042095839796305955e-08	5.915636205559930764e+06	1.444454948647218384e+07
4.174655289253134782e-08	5.915447852831297554e+06	1.444428947227266058e+07
4.311561990318228626e-08	5.915253323125422001e+06	1.444402093097717129e+07
4.452958509942655287e-08	5.915052413869992830e+06	1.444374358294188231e+07
4.598992090522439315e-08	5.914844915849392302e+06	1.444345713935213350e+07
4.749814803228499868e-08	5.914630612986831926e+06	1.444316130192164518e+07
4.905583706365045989e-08	5.914409282119344920e+06	1.444285576258193143e+07
5.066461008921269181e-08	5.914181831255089492e+06	1.444254044394011237e+07
5.232614239486661694e-08	5.913949210631078109e+06	1.444221526869847253e+07
5.404216420705915059e-08	5.913708961276063696e+06	1.444187942942195944e+07
5.581446249454960394e-08	5.913460833007857203e+06	1.444153257638640143e+07
5.764488282925879445e-08	5.913204567439613864e+06	1.444117434839852899e+07
5.953533130814369715e-08	5.912939897710759193e+06	1.444080437241982855e+07
6.148777653810024108e-08	5.912666548209100962e+06	1.444042226317808963e+07
6.350425168595962148e-08	5.912385160020289011e+06	1.444002783241579495e+07
6.558685659571428548e-08	5.912098307053308003e+06	1.443962131866270304e+07
6.773775997517751128e-08	5.911802046820174903e+06	1.443920147340005636e+07
6.995920165435375620e-08	5.911496070812118240e+06	1.443876785942457244e+07
7.225349491787214948e-08	5.911180060402903706e+06	1.443832002519500814e+07
7.462302891391107044e-08	5.910853686517034657e+06	1.443785750436194055e+07
7.707027114212294845e-08	5.910516609287073836e+06	1.443737981528214365e+07
7.959777002314985573e-08	5.910168882689660415e+06	1.443688656277194992e+07
8.220815755240541849e-08	5.909815743453159928e+06	1.443637864682102576e+07
8.490415204088747078e-08	5.909451023110068403e+06	1.443585407390265353e+07
8.768856094587425811e-08	5.909074341861099936e+06	1.443531229775604978e+07
9.056428379445295063e-08	5.908685307451552711e+06	1.443475275420595892e+07
9.353431520292386860e-08	5.908283514762836508e+06	1.443417486057514697e+07
9.660174799522647250e-08	5.907868545390607789e+06	1.443357801507763565e+07
9.976977642363202159e-08	5.907439967209061608e+06	1.443296159619203582e+07
1.030416994950587396e-07	5.907005404778256081e+06	1.443232723455980234e+07
1.064209244064724761e-07	5.906557221898685209e+06	1.443167224685580283e+07
1.099109700929497372e-07	5.906094340981727466e+06	1.443099577900564298e+07
1.135154708920999096e-07	5.905616280009187758e+06	1.443029712657368369e+07
1.172381803286598596e-07	5.905122541155213490e+06	1.442957556202251464e+07
1.210829750232039531e-07	5.904612610267885029e+06	1.442883033395532705e+07
1.250538587290391570e-07	5.904085956333809532e+06	1.442806066633345559e+07
1.291549665014884007e-07	5.903551359081862494e+06	1.442726866189275868e+07
1.333905690039058854e-07	5.903001706518161111e+06	1.442645145496162772e+07
1.377650769549053468e-07	5.902434028245984577e+06	1.442560744794826396e+07
1.422830457214352017e-07	5.901847733117055148e+06	1.442473576195115969e+07
1.469491800624817218e-07	5.901242210596547462e+06	1.442383548924546503e+07
1.517683390283405561e-07	5.900616830127309076e+06	1.442290569233773276e+07
1.567455410205594968e-07	5.899970940473234281e+06	1.442194540298967250e+07
1.618859690178197646e-07	5.899314299508288503e+06	1.442095721215668134e+07
1.671949759731990056e-07	5.898641654599553905e+06	1.441993851785458438e+07
1.726780903884356132e-07	5.897946950481360778e+06	1.441888641574594751e+07
1.783410220710008120e-07	5.897229463727849536e+06	1.441779981023070216e+07
1.841896680799711039e-07	5.896488447188599966e+06	1.441667756977888383e+07
1.902301188668944219e-07	5.895723129210599698e+06	1.441551852575230226e+07
1.964686646180446931e-07	5.894932712834677659e+06	1.441432147118758596e+07
2.029118018046678038e-07	5.894127505053129978e+06	1.441308942570091970e+07
2.095662399480432992e-07	5.893306272114085034e+06	1.441182095480860583e+07
2.164389086064020114e-07	5.892458107060960494e+06	1.441051088475343399e+07
2.235369645909794139e-07	5.891582126662297174e+06	1.440915785130200908e+07
2.308677994187169850e-07	5.890677418721292168e+06	1.440776044548126496e+07
2.384390470093720426e-07	5.889743041125896387e+06	1.440631721211124770e+07
2.462585916350547006e-07	5.888778020867750049e+06	1.440482664828976430e+07
2.543345761304648365e-07	5.887792385960434563e+06	1.440329188853821158e+07
2.626754103723835758e-07	5.886792284354530275e+06	1.440171438225064799e+07
2.712897800372467241e-07	5.885759384684569202e+06	1.440008514206728525e+07
2.801866556459195443e-07	5.884692611346833408e+06	1.439840247138887458e+07
2.893753019050950594e-07	5.883590853463466279e+06	1.439666461797665991e+07
2.988652873550382326e-07	5.882452963725675829e+06	1.439486977212767676e+07
3.086664943337274455e-07	5.881277757198981009e+06	1.439301606479023769e+07
3.187891292677645596e-07	5.880073555475360714e+06	1.439110606381823495e+07
3.292437333007768907e-07	5.878858964837961830e+06	1.438914713926653005e+07
3.400411932703706463e-07	5.877604542026219890e+06	1.438712397230930626e+07
3.511927530450727317e-07	5.876308980754652061e+06	1.438503445613409206e+07
3.627100252330649086e-07	5.874970931898498908e+06	1.438287641483606957e+07
3.746050032748993774e-07	5.873589002088814043e+06	1.438064760115221143e+07
3.868900739327976195e-07	5.872161752261489630e+06	1.437834569412109070e+07
3.995780301895269929e-07	5.870693497930726968e+06	1.437597133173992112e+07
4.126820845702951630e-07	5.869222789210231975e+06	1.437354300799683481e+07
4.262158829015325345e-07	5.867703848991518840e+06	1.437103504802758060e+07
4.401935185208874400e-07	5.866135095535531640e+06	1.436844484018347226e+07
4.546295469532399562e-07	5.864514895230508409e+06	1.436576968716749921e+07
4.695390010680058238e-07	5.862841560890826397e+06	1.436300680322552659e+07
4.849374067335232931e-07	5.861113350000063889e+06	1.436015331124535203e+07
5.008407989848212921e-07	5.859328462896440178e+06	1.435720623976065777e+07
5.172657387216018967e-07	5.857551883675328456e+06	1.435420130707284808e+07
