# Frequency (Hz)	Real Part (Ohm/m)
1000.0	966786.7861357044
1018.6101701559753	978431.403972592
1037.566678745186	990292.730128826
1056.875971184804	1002374.7975831021
1076.5446128423157	1014681.7143685392
1096.5792912678098	1027217.664969448
1116.9868184678226	1039986.9117441067
1137.7741332214914	1052993.796374006
1158.9483034398106	1066242.7413400663
1180.5165285688054	1079738.2514263326
1202.4861420374123	1093484.9152516455
1224.8646137509306	1107487.4068298244
1247.6595526308697	1121750.4871588817
1270.8787092020582	1135508.7713255193
1294.529978227916	1148783.6518369443
1318.6214013947485	1162305.5801334863
1343.1611700460153	1176079.1538164637
1368.1576279674719	1190109.056049338
1393.619274224142	1204400.0571500373
1419.5547660501015	1218957.0162129204
1445.9729217920194	1233784.8827609166
1472.882723907502	1248888.698428421
1500.2933220192183	1264273.598675503
1528.2140360258693	1279944.8145340153
1556.654359271062	1295907.674386206
1585.6239617711371	1312122.1510306264
1615.132693503091	1326849.2094498107
1645.1905877536624	1341850.3409320724
1675.807864530767	1357130.646023751
1706.9949340384078	1372695.320193222
1738.7624002162504	1388549.655597408
1771.1210643450886	1404699.042881177
1804.0819287193826	1421148.9730102108
1837.6562003881704	1437905.0391379998
1871.8552949655793	1454972.9385075725
1906.690840512252	1472358.4743886173
1942.1746814890264	1490067.5580506618
1978.3188827841643	1508106.2107729628
2015.1357338155585	1525295.678065285
2052.6377527092523	1541776.047969922
2090.8376905557498	1558563.1203627174
2129.748535745521	1575662.6030291647
2169.3835183851843	1593080.3099776125
2209.756114795903	1610822.163416099
2250.880052095462	1628894.1957659575
2292.7693128656488	1647302.5517129106
2335.438139906479	1666053.4902963294
2378.9010410788933	1685153.387037369
2423.1727942376006	1704608.7361067217
2468.2684522556924	1724426.1525326981
2514.2033481427966	1744481.0418880782
2560.9931002584594	1762390.6949620512
2608.6536176225477	1780633.649727164
2657.2011053245064	1799216.108984605
2706.652070033241	1818144.390970742
2757.0233256095826	1837424.9315054016
2808.3319988231724	1857064.286180111
2860.5955351757416	1877069.1325870699
2913.831704832789	1897446.2725896074
2968.0586086656026	1918202.634634883
3023.2946844057765	1939345.2761096398
3079.5587129142264	1960881.38573979
3136.8698245668766	1982818.2860346541
3195.2475057592133	2003403.3119751185
3254.711605531848	2022989.7662327178
3315.282342319423	2042940.727736803
3376.9803108250912	2063262.9800292559
3439.8264890229243	2083963.4328948227
3503.8422452906757	2105049.1247105245
3569.0493456752292	2126527.224838772
3635.4699612933177	2148405.036065033
3703.126675869927	2170689.997080857
3772.0424934169973	2193389.685013103
3842.240846055061	2216511.8180002565
3913.745601980384	2240064.257816669
3986.581073580439	2263780.9759656405
4060.7720257003657	2284527.9335124297
4136.343684063274	2305660.9954693825
4213.321743847289	2327187.347305272
4291.732378422157	2349114.3082116633
4371.602248248501	2371449.333591526
4452.958509942655	2394200.017594148
4535.828825510186	2417374.095697222
4620.241371751313	2440979.447337003
4706.224849841281	2465024.098587391
4793.808495089106	2489516.2248888896
4883.02208687788	2514464.1538283424
4973.895958790063	2539876.367970396
5066.461008921268	2563262.474235212
5160.7487103859075	2585312.9116495657
5256.791122018419	2607773.711456214
5354.620899273607	2630652.510569105
5454.271305329836	2653957.0880264514
5555.7762223988775	2677695.3676356906
5659.170163246242	2701875.420667668
5764.488282925873	2726505.468600951
5871.766390733255	2751593.885917224
5981.040962380945	2777149.2029486964
6092.349152400711	2803180.108778513
6205.7288067765	2829695.4541951367
6321.218475812449	2856220.330783601
6438.8574272404185	2878843.137012116
6558.685659571435	2901886.95751395
6680.743915695614	2925359.627436365
6805.073696735206	2949269.1277400507
6931.717276155407	2973623.5879127346
7060.717714137772	2998431.2887332877
7192.118872221193	3023700.6650872906
7325.96542821523	3049440.308834976
7462.302891391108	3075658.9717325596
7601.17761795533	3102365.568407931
7742.636826811269	3129569.179391716
7886.728615614156	3157279.054204769
8033.501977124735	3182153.4865038935
8183.00681586739	3205351.104700137
8335.293965098195	3228980.4345182264
8490.415204088747	3253049.5101849013
8648.423275731726	3277566.5154452305
8809.37190447399	3302539.7863451685
8973.31581458352	3327977.814065906
9140.310748756232	3353889.24781096
9310.413487069076	3380282.897746993
9483.681866285926	3407167.737999375
9660.174799522645	3434552.909703468
9839.952296278227	3462447.7241127254
10023.075482838643	3490108.618034701
10209.606623060476	3512964.071159558
10399.609139541202	3536244.8681560587
10593.1476351837	3559958.92474603
10790.287915161836	3584114.30396423
10991.097009294961	3608719.218899863
11195.643194838794	3633782.035489124
11403.99601970033	3659311.2753596953
11616.22632608502	3685315.6187282116
11832.40627458378	3711803.9073516103
12052.609368708414	3738785.147533431
12276.910479883603	3766268.513186058
12505.385872903913	3794263.3489499358
12738.113231864783	3818591.712952616
12975.171686575868	3840969.6829225947
13216.641839466038	3863764.1107214596
13462.60579298911	3886982.7467002724
13713.147177539455	3910633.4854454375
13968.351179887397	3934724.3684629644
14228.30457214352	3959263.5869126557
14493.09574126215	3984259.48439319
14762.81471909391	4009720.5597790414
15037.553212997384	4035655.4701101747
15317.404637020798	4062073.033535551
15602.46414366368	4088982.2323113787
15892.828656229764	4115349.9859664096
16188.596901781993	4136247.721244383
16489.86944471065	4157534.3669317523
16796.74872092653	4179217.1607174133
17109.339072690134	4201303.474984882
17427.746784089173	4223800.8193189865
17752.08011717636	4246716.84305921
18082.44934877952	4270059.337900534
18418.96680799711	4293836.24054272
18761.746914391195	4318055.635388859
19110.90621689136	4342725.75729416
19466.56343342263	4367854.99436589
19828.83949127071	4393451.890815412
20197.857568198782	4414723.841654881
20573.743134329114	4433923.075660232
20956.623994804308	4453479.610677287
21346.630333242454	4473400.096138673
21743.8947560008	4493691.305224083
22148.55233726359	4514360.137163242
22560.74066496859	4535413.619581715
22980.599887588487	4556858.910890372
23408.272761782944	4578703.3027193295
23843.904700937208	4600954.222397175
24287.643824604504	4623619.235476351
24739.64100886812	4646706.04830552
25200.049937640895	4668945.223590087
25669.027154919517	4685520.950735031
26146.732118010917	4702405.154982599
26633.327251749808	4719603.577144164
27128.978003724646	4737122.064868568
27633.852900531667	4754966.5746304
28148.123605075813	4773143.173755251
28671.964974937695	4791658.04248267
29205.55512182745	4810517.476067523
29749.075472144435	4829727.886920437
30302.71082866393	4849295.806788085
30866.649433372742	4869227.888974074
31441.08303147265	4889530.910601105
32026.206936576502	4905256.717724118
32622.220097116733	4919002.03695604
33229.325163989684	4933003.158917713
33847.72855945983	4947264.844141471
34477.640547344636	4961791.941753952
35119.275304507275	4976589.391124873
35772.850993678774	4991662.223546465
36438.58983763541	5007015.563944151
37116.71819475767	5022654.632619103
37807.466635993485	5038584.747023176
38511.070023255685	5054811.323566914
39227.76758927723	5071339.8794611795
39957.803018952654	5086811.40556205
40701.42453219439	5097061.736531575
41458.88496832911	5107502.827904596
42230.441872066716	5118138.229764684
43016.35758106799	5128971.558263066
43816.89931514194	5140006.496848159
44632.33926710397	5151246.797517979
45462.95469532399	5162696.282095869
46309.02801799736	5174358.843529953
47170.84690917023	5186238.44721678
48048.704396551344	5198339.132349604
48942.89896114532	5210665.013291753
49853.73463873894	5223220.280975558
50781.5211232767	5231539.993607823
51726.57387216024	5238194.479261065
52689.21421350677	5244972.806024613
53669.76945540476	5251877.278602605
54668.57299720181	5258910.244590109
55685.96444286408	5266074.095271342
56722.28971644549	5273371.266432727
57777.90117970507	5280804.23919108
58853.1577519145	5288375.540837232
59948.42503189408	5296087.745695321
61064.07542232036	5303943.475998096
62200.48825634718	5311945.402778507
63358.04992658254	5318870.003049179
64537.15401646702	5321660.589725333
65738.20143409586	5324503.109694366
66961.60054853215	5327398.529443694
68207.76732865692	5330347.833447232
69477.1254846024	5333352.024500115
70770.10661181889	5336412.124059674
72087.15033782135	5339529.172592731
73428.70447166759	5342704.229929372
74795.22515621828	5345938.375623303
76187.17702322999	5349232.709318908
77605.0333513357	5352588.351125139
79049.2762269642	5356006.441996365
80520.39670825469	5356174.8533378225
82018.8949920221	5355156.176882188
83545.28058382872	5354118.542684379
85100.07247122246	5353061.59793759
86683.79930019773	5351984.983269218
88296.99955494082	5350888.332618675
89940.22174092053	5349771.273112924
91614.0245713852	5348633.424939697
93318.9771573324	5347474.401218353
95055.65920101192	5346293.807868342
96824.66119303115	5345091.243475201
98626.5846131283	5343866.29915408
100462.04213468132	5341780.375862506
102331.65783302448	5337117.777341952
104236.06739764012	5332368.407069561
106175.9183482999	5327530.650208268
108151.87025522892	5322602.8618686125
110164.59496336569	5317583.366549464
112214.77682079801	5312470.457568328
114303.11291144785	5307262.396481062
116430.31329208757	5301957.412490779
118597.10123376705	5296553.701845761
120804.21346773289	5291049.427226168
123052.40043592616	5285442.7171193175
125342.42654613995	5279731.6651833635
127675.07043192645	5272271.177061624
130051.12521734099	5264155.310034425
132471.39878661174	5255888.405340887
134936.71405883064	5247467.652144339
137447.90926775365	5238890.187297962
140005.8382468096	5230153.094371287
142611.37071941295	5221253.402658577
145265.39259467812	5212188.086168759
147968.80626863963	5202954.0625965465
150722.53093107554	5193548.192274433
153527.5028780421	5183967.277105158
156384.67583022476	5174208.059474332
159295.0212572123	5164018.140414024
162259.5287078087	5152975.831726487
165279.2061464897	5141728.023795359
168355.08029612005	5130270.8922447525
171488.19698705408	5118600.541526488
174679.62151272455	5106713.0035955785
177930.43899185772	5094604.2365610385
181241.75473742394	5082270.123311605
184614.69463245454	5069706.4701158805
188050.40551285836	5056909.005196399
191550.0555573528	5043873.377277202
195114.83468466165	5030595.15410434
198745.9549580986	5017069.82093886
202444.65099768018	5003537.291854004
206212.18039991445	4989819.510273351
210049.8241653915	4975846.438443321
213958.88713434213	4961613.325368933
217940.6984302958	4947115.331638379
221996.61191199525	4932347.527777584
226128.00663372793	4917304.8925741045
230336.2873142131	4901982.311369897
234622.88481422624	4886374.57432225
238989.25662310526	4870476.374632394
243436.8873543108	4854282.30674114
247967.289250216	4837786.864490909
252582.00269627848	4821419.155748257
257282.59674479323	4805770.580287457
262070.66964838552	4789830.782174631
266947.8494034318	4773594.341706676
271915.7943036019	4757055.738318883
276976.1935036891	4740209.348707902
282130.76759394706	4723049.444919746
287381.2691851069	4705570.1924022315
292729.4835042813	4687765.648021169
298177.22900196735	4669629.7580396235
303726.3579703311	4651156.356059593
309378.75717301364	4632339.160925353
315136.34848664823	4613171.774587805
321001.08955431683	4595666.553865904
326974.97445117676	4578305.763020032
333060.03436245886	4560621.884902477
339258.33827409917	4542608.906804137
345571.9936762143	4524260.704118369
352003.1472796675	4505571.0382585665
358553.9857459817	4486533.55453695
365226.7364308175	4467141.780003936
372023.6681413066	4447389.121247235
378947.09190746717	4427268.862150038
385999.36176797637	4406774.161607463
393182.87557057705	4385898.05120049
400500.07578736113	4365723.144633798
407953.45034524484	4347457.001813257
415545.53347188793	4328850.922966731
423278.90655735444	4309898.581826939
431156.19903182285	4290593.534393678
439180.0892596086	4270929.216742816
447353.3054498463	4250898.942794471
455678.6265841068	4230495.902039674
464158.8833612772	4209713.157224736
472796.9591600391	4188543.6419924786
481595.79101923504	4166980.158479632
490558.37063650455	4145015.3748694556
499687.7453854889	4122641.822898852
508987.0193519675	4103277.0412587896
518459.3543892913	4084222.607549748
528107.971193433	4064813.5675871577
537936.1503980698	4045043.322088299
547947.2336900292	4024905.1489566793
558144.6249454955	4004392.200996454
568531.7913873753	3983497.503584284
579112.2647641759	3962213.952297917
589889.6425508494	3940534.3105005887
600867.5891719692	3918451.2068804884
612049.837247669	3895957.1329444516
623440.1888627863	3873044.4404649585
635042.5168595961	3851323.289001325
646860.7661546321	3832230.510765739
658898.9550799957	3812782.4126784354
671161.1767496272	3792972.382176522
683651.6004510238	3772793.6836361685
696374.4730628222	3752239.4560824544
709334.1204987989	3731302.7108565415
722534.9491787221	3709976.3292394597
735981.4475265755	3688253.0600316776
749678.1874966878	3666125.51708759
763629.8261282243	3643586.176804181
777841.1071286482	3620627.375562895
792316.8624866261	3597241.307123929
807062.0141149492	3577764.0166010885
822081.575524054	3558623.1787851225
837380.6535266489	3539126.1267204755
852964.4499741016	3519266.231199366
868838.2635251193	3499036.739643326
885007.4914473438	3478430.773807262
901477.6314524917	3457441.3274407606
918254.2835656281	3436061.2639058987
935343.1520292377	3414283.3137507075
952750.0472427299	3392100.072237477
970480.8877380306	3369503.996825077
988541.7021919573	3346487.4046043954
1006938.6314760271	3325013.2334032645
1025677.9307444209	3306454.464808107
1044765.9715608053	3287550.3143715058
1064209.2440647245	3268294.354478628
1084014.359178331	3248680.0378956264
1104188.0508541602	3228700.695543522
1124737.1783647507	3208349.534230641
1145668.7286348727	3187619.6343428525
1166989.8186171474	3166503.9474908384
1188707.6977119034	3144995.2941135485
1210829.7502320393	3123086.3610370816
1233363.4979137746	3100769.698988125
1256316.6024741214	3078037.720061122
1279696.8682159416	3059667.4908023626
1303512.2446815087	3041567.522386212
1327770.829355429	3023130.7104780194
1352480.8704178738	3004350.7863630815
1377650.769549055	2985221.3646648466
1403289.084785873	2965735.941173824
1429404.533431761	2945887.8906360716
1456005.9950206485	2925670.464500548
1483102.514336103	2905076.788624526
1510703.3044866556	2884099.860936312
1538817.7500383465	2862732.549054473
1567455.410205595	2840967.587862738
1596626.022101425	2820944.2689763545
1626339.5040481905	2803798.183296917
1656605.9589499151	2786333.0060454737
1687435.6777273756	2768542.798873579
1718839.1428171454	2750421.512919106
1750827.0317357269	2731962.986749572
1783410.220710006	2713160.9442671994
1816599.7883753285	2694008.992574945
1850407.019542302	2674500.6198028815
1884843.4090337954	2654629.1928940634
1919920.6655932867	2634387.955349228
1955650.715865947	2613770.02492952
1992045.7084538713	2592768.391316433
2029118.0180466783	2576213.2857858185
2066880.2496290822	2559818.234593115
2105345.242766708	2543118.068707997
2144526.0759716653	2526107.109894128
2184436.0711494284	2508779.5742422123
2225088.7981283693	2491129.5702034333
2266498.079273693	2473151.0965862386
2308677.994187172	2454838.040515881
2351642.884494346	2436184.1753559825
2395407.358720879	2417183.1585913873
2439986.29725955	2397828.5296716685
2485394.857429798	2378113.7078144485
2531648.478631358	2360206.4825615934
2578762.8875937983	2344935.2165550785
2626754.1037238385	2329379.749689682
2675638.4445520453	2313534.7929390664
2725432.531281028	2297394.958847208
2776153.2944368036	2280954.7596966093
2827817.979625338	2264208.605642423
2880444.1533962977	2247150.802811826
2934049.709215787	2229775.5513680675
2988652.873550383	2212076.943538437
3044272.2120643063	2194048.9616055717
3100926.6359319235	2175685.4758613706
3158635.408267819	2156980.242522809
3217418.1506763715	2142545.3637722735
3277294.849923382	2128152.5948875123
3338285.8647317644	2113491.974124788
3400411.9327037027	2098558.5167150805
3463694.1773717343	2083347.145121958
3528154.1153808828	2067852.6873151835
3593813.6638046256	2052069.8750121503
3660695.147596906	2035993.3418866158
3728821.30718283	2019617.621744101
3798215.306190736	2002937.1466633035
3868900.7393279755	1985946.2451029713
3940901.6404034477	1968639.1399734986
4014242.490499326	1953104.2710225042
4088948.226294856	1939863.7382786183
4165044.248545185	1926376.79696741
4242556.430717777	1912638.8613835177
4321511.127789762	1898645.2604808176
4401935.1852088785	1884391.236284222
4483855.948021181	1869871.9422719234
4567301.270168747	1855082.4417275079
4652299.523960189	1840017.7060614408
4738879.609717651	1824672.6131012733
4827070.965603188	1809041.9453500558
4916903.577628021	1793120.3882123404
5008407.989848212	1776902.5281871406
5101615.314749833	1764618.9421116048
5196557.243827657	1752273.3255774677
5293266.058360566	1739697.955018948
5391774.640387494	1726888.5546745632
5492116.483887789	1713840.76921017
5594325.706169377	1700550.1622381273
5698437.0594691355	1687012.2148088592
5804485.942768984	1673222.3238743674
5912508.413831869	1659175.800723156
6022541.201461928	1644867.8693859978
6134621.717992506	1630293.6650120763
6248788.072006888	1615448.232214868
6365079.081295578	1602271.561565487
6483534.286054714	1591019.362714124
6604193.962330305	1579557.7585275057
6727099.135712336	1567882.8519367152
6852291.595284057	1555990.673347715
6979813.907830667	1543877.179291647
7109709.432312423	1531538.2510500147
7242022.334607315	1518969.6932542606
7376797.60252773	1506167.2324593142
7514081.061116962	1493126.515690558
7653919.388230155	1479843.108963778
7796360.130405221	1466312.4957775646
7941451.71902934	1452530.075577638
8089243.486805938	1442265.5379975543
8239785.684528512	1431858.1944618195
8393129.498166373	1421257.168492012
8549327.066268368	1410458.8556250806
8708431.497690724	1399459.5843182958
8870496.889654402	1388255.614700901
9035578.34613892	1376843.1373025044
9203731.99661823	1365218.271757821
9375015.01514529	1353377.0654873122
9549485.639791967	1341315.492353257
9727203.192450536	1329029.4512908284
9908228.099003786	1316514.7649136847
10092621.909870483	1305525.492827502
10280447.320933098	1296106.3090986765
10471768.194855202	1286511.8327579275
10666649.582795387	1276738.8015799194
10865157.746525371	1266783.8926287491
11067360.180959744	1256643.721128109
11273325.63710487	1246314.8393104323
11483124.14543511	1235793.7352446078
11696827.039703846	1225076.8316418896
11914506.981197748	1214160.4846395794
12136237.983442418	1203040.9825620735
12362095.437367693	1191714.5446588567
12592156.13694151	1180217.5847172786
12826498.3052806	1171717.0779539223
13065201.621247198	1163058.3753132878
13308347.24654076	1154238.5327431804
13556017.853293689	1145254.551402095
13808297.652180923	1136103.3766395743
14065272.421052363	1126781.8969575958
14327029.534098294	1117286.9429526303
14593657.991557576	1107615.286238008
14865248.449978571	1097763.6383462376
15141893.25304352	1087728.6496108845
15423686.462966273	1077506.9080276531
15710723.892474487	1067094.9380942676
16003103.137387017	1058046.571747198
16300923.609797413	1050251.9141386396
16604286.571875297	1042312.1966256781
16913295.17029647	1034224.7196188102
17228054.471313924	1025986.7332887119
17548671.49648152	1017595.436631267
17875255.259042352	1009047.9765151987
18207916.800994623	1000341.446711969
18546769.230846975	991472.886907633
18891927.762076646	982439.2816962998
19243509.75230332	973237.559554861
19601634.743191857	963864.591798643
19966424.501097932	954418.354679586
20338003.0584698	947416.9166472818
20716496.75602067	940285.1806618602
21102034.285685964	933020.7218562413
21494746.734379806	925621.0702361597
21894767.628566206	918083.7098403336
