# Frequency (Hz)	Imaginary Part (Ohm/m)
1000.0	14362267.415571991
1018.6101701559753	14331879.185648257
1037.566678745186	14300925.425594905
1056.875971184804	14269395.61079999
1076.5446128423157	14237279.020786757
1096.5792912678098	14204564.735568548
1116.9868184678226	14171241.631935902
1137.7741332214914	14137298.379674517
1158.9483034398106	14102723.437712904
1180.5165285688054	14067505.050198257
1202.4861420374123	14031631.24249934
1224.8646137509306	13995089.817135006
1247.6595526308697	13957868.349626893
1270.8787092020582	13923556.151668135
1294.529978227916	13892063.391929036
1318.6214013947485	13859984.546572508
1343.1611700460153	13827308.708445495
1368.1576279674719	13794024.76741095
1393.619274224142	13760121.406570287
1419.5547660501015	13725587.098415522
1445.9729217920194	13690410.100909777
1472.882723907502	13654578.453494873
1500.2933220192183	13618079.973024609
1528.2140360258693	13580902.249622354
1556.654359271062	13543032.642461581
1585.6239617711371	13504641.30146669
1615.132693503091	13472739.690754455
1645.1905877536624	13440244.385638624
1675.807864530767	13407144.33736531
1706.9949340384078	13373428.291561458
1738.7624002162504	13339084.784408212
1771.1210643450886	13304102.13874309
1804.0819287193826	13268468.460089639
1837.6562003881704	13232171.632613162
1871.8552949655793	13195199.315001223
1906.690840512252	13157538.936267467
1942.1746814890264	13119177.69147733
1978.3188827841643	13080102.537394265
2015.1357338155585	13044409.350322511
2052.6377527092523	13011620.441202337
2090.8376905557498	12978221.324904215
2129.748535745521	12944200.645368718
2169.3835183851843	12909546.835198248
2209.756114795903	12874248.111723946
2250.880052095462	12838292.472999506
2292.7693128656488	12801667.693720335
2335.438139906479	12764361.321066855
2378.9010410788933	12726360.670470389
2423.1727942376006	12687652.821300283
2468.2684522556924	12648224.612470753
2514.2033481427966	12608455.733436925
2560.9931002584594	12575484.831264665
2608.6536176225477	12541900.334992781
2657.2011053245064	12507690.82553068
2706.652070033241	12472844.671276532
2757.0233256095826	12437350.02416244
2808.3319988231724	12401194.815625919
2860.5955351757416	12364366.752506515
2913.831704832789	12326853.312865935
2968.0586086656026	12288641.74173052
3023.2946844057765	12249719.046754345
3079.5587129142264	12210071.99380173
3136.8698245668766	12169687.102447484
3195.2475057592133	12133115.407768445
3254.711605531848	12099446.359329032
3315.282342319423	12065150.724169174
3376.9803108250912	12030216.84140338
3439.8264890229243	11994632.83313511
3503.8422452906757	11958386.600418132
3569.0493456752292	11921465.819142781
3635.4699612933177	11883857.935845602
3703.126675869927	11845550.163441058
3772.0424934169973	11806529.476873765
3842.240846055061	11766782.608689856
3913.745601980384	11726296.044525873
3986.581073580439	11685675.402640874
4060.7720257003657	11652008.728732653
4136.343684063274	11617715.512294412
4213.321743847289	11582784.093263062
4291.732378422157	11547202.594579745
4371.602248248501	11510958.918151537
4452.958509942655	11474040.740737913
4535.828825510186	11436435.509760777
4620.241371751313	11398130.439036397
4706.224849841281	11359112.504428007
4793.808495089106	11319368.439417414
4883.02208687788	11278884.730594283
4973.895958790063	11237647.613061413
5066.461008921268	11200604.469136083
5160.7487103859075	11166387.741611864
5256.791122018419	11131534.234966239
5354.620899273607	11096032.0986314
5454.271305329836	11059869.261498472
5555.7762223988775	11023033.427813182
5659.170163246242	10985512.072995171
5764.488282925873	10947292.439379511
5871.766390733255	10908361.531878963
5981.040962380945	10868706.1135655
6092.349152400711	10828312.701169625
6205.7288067765	10787167.560495881
6321.218475812449	10746109.109305134
6438.8574272404185	10712029.361974131
6558.685659571435	10677315.384746429
6680.743915695614	10641955.37449573
6805.073696735206	10605937.308437549
6931.717276155407	10569248.940041332
7060.717714137772	10531877.79486652
7192.118872221193	10493811.166321078
7325.96542821523	10455036.111341141
7462.302891391108	10415539.44599022
7601.17761795533	10375307.740976531
7742.636826811269	10334327.317086866
7886.728615614156	10292584.24053555
8033.501977124735	10255366.917020299
8183.00681586739	10220842.739538956
8335.293965098195	10185676.061240189
8490.415204088747	10149854.925074462
8648.423275731726	10113367.151469508
8809.37190447399	10076200.334189158
8973.31581458352	10038341.83611506
9140.310748756232	9999778.784949956
9310.413487069076	9960498.068840934
9483.681866285926	9920486.331921274
9660.174799522645	9879729.969769308
9839.952296278227	9838215.124782749
10023.075482838643	9797014.22547241
10209.606623060476	9762722.906460583
10399.609139541202	9727793.42016708
10593.1476351837	9692213.89019019
10790.287915161836	9655972.219106363
10991.097009294961	9619056.08435693
11195.643194838794	9581452.934058301
11403.99601970033	9543149.98273422
11616.22632608502	9504134.206968524
11832.40627458378	9464392.34097706
12052.609368708414	9423910.87209718
12276.910479883603	9382676.036193274
12505.385872903913	9340673.812976848
12738.113231864783	9303497.442883765
12975.171686575868	9268847.32467922
13216.641839466038	9233552.361878961
13462.60579298911	9197600.553815339
13713.147177539455	9160979.676486239
13968.351179887397	9123677.278398784
14228.30457214352	9085680.676335698
14493.09574126215	9046976.951042866
14762.81471909391	9007552.94283666
15037.553212997384	8967395.247129513
15317.404637020798	8926490.209872184
15602.46414366368	8884823.922911257
15892.828656229764	8843704.280796103
16188.596901781993	8809380.536557788
16489.86944471065	8774418.02159881
16796.74872092653	8738804.848287364
17109.339072690134	8702528.9077608
17427.746784089173	8665577.865808466
17752.08011717636	8627939.158677956
18082.44934877952	8589599.988803297
18418.96680799711	8550547.320453636
18761.746914391195	8510767.875300944
19110.90621689136	8470248.127905246
19466.56343342263	8428974.301115835
19828.83949127071	8386932.361386888
20197.857568198782	8350012.851917248
20573.743134329114	8315442.235084017
20956.623994804308	8280228.25318912
21346.630333242454	8244358.9330992885
21743.8947560008	8207822.078859208
22148.55233726359	8170605.267544757
22560.74066496859	8132695.845039081
22980.599887588487	8094080.921730059
23408.272761782944	8054747.368127693
23843.904700937208	8014681.810399951
24287.643824604504	7973870.625825503
24739.64100886812	7932299.938161856
25200.049937640895	7891518.871948964
25669.027154919517	7857416.838743143
26146.732118010917	7822680.160896701
26633.327251749808	7787297.027564884
27128.978003724646	7751255.408101108
27633.852900531667	7714543.047966418
28148.123605075813	7677147.464562789
28671.964974937695	7639055.942988939
29205.55512182745	7600255.531717099
29749.075472144435	7560733.038189366
30302.71082866393	7520475.0243321005
30866.649433372742	7479467.801986802
31441.08303147265	7437697.428256037
32026.206936576502	7401363.236786384
32622.220097116733	7367203.3387317555
33229.325163989684	7332407.719161828
33847.72855945983	7296964.547191014
34477.640547344636	7260861.77175896
35119.275304507275	7224087.11753301
35772.850993678774	7186628.080734485
36438.58983763541	7148471.924887267
37116.71819475767	7109605.676487231
37807.466635993485	7070016.120591146
38511.070023255685	7029689.796323437
39227.76758927723	6988612.992299333
39957.803018952654	6948583.304340752
40701.42453219439	6915122.0876805475
41458.88496832911	6881038.152084676
42230.441872066716	6846319.908647781
43016.35758106799	6810955.552793003
43816.89931514194	6774933.060258316
44632.33926710397	6738240.183008115
45462.95469532399	6700864.445068777
46309.02801799736	6662793.138286682
47170.84690917023	6624013.318007306
48048.704396551344	6584511.7986739185
48942.89896114532	6544275.149344318
49853.73463873894	6503289.689124188
50781.5211232767	6468062.305011796
51726.57387216024	6434834.89765948
52689.21421350677	6400989.122602499
53669.76945540476	6366513.47191265
54668.57299720181	6331396.223497224
55685.96444286408	6295625.4371133745
56722.28971644549	6259188.950308304
57777.90117970507	6222074.3742839135
58853.1577519145	6184269.08968444
59948.42503189408	6145760.242305774
61064.07542232036	6106534.738724883
62200.48825634718	6066579.241847892
63358.04992658254	6027937.064849052
64537.15401646702	5995726.2983460175
65738.20143409586	5962916.0839975085
66961.60054853215	5929495.265977119
68207.76732865692	5895452.480846614
69477.1254846024	5860776.153692253
70770.10661181889	5825454.494189163
72087.15033782135	5789475.492592529
73428.70447166759	5752826.9156541405
74795.22515621828	5715496.30246295
76187.17702322999	5677470.960208249
77605.0333513357	5638737.959863949
79049.2762269642	5599284.131792589
80520.39670825469	5565868.727689236
82018.8949920221	5534264.378707928
83545.28058382872	5502071.867414414
85100.07247122246	5469280.248007979
86683.79930019773	5435878.3709847
88296.99955494082	5401854.879346489
89940.22174092053	5367198.204739586
91614.0245713852	5331896.563521214
93318.9771573324	5295937.952752981
95055.65920101192	5259310.146119779
96824.66119303115	5222000.6897726925
98626.5846131283	5183996.898094558
100462.04213468132	5147559.537710302
102331.65783302448	5117328.363590124
104236.06739764012	5086534.582175556
106175.9183482999	5055167.723249117
108151.87025522892	5023217.121740796
110164.59496336569	4990671.9141018195
112214.77682079801	4957521.0346109215
114303.11291144785	4923753.21161188
116430.31329208757	4889356.963681027
118597.10123376705	4854320.59572345
120804.21346773289	4818632.194996541
123052.40043592616	4782279.627059507
125342.42654613995	4745250.531647559
127675.07043192645	4714420.295062562
130051.12521734099	4685181.592264323
132471.39878661174	4655398.752231874
134936.71405883064	4625061.648478691
137447.90926775365	4594159.966062623
140005.8382468096	4562683.198078686
142611.37071941295	4530620.642086604
145265.39259467812	4497961.396471878
147968.80626863963	4464694.3567390945
150722.53093107554	4430808.2117363
153527.5028780421	4396291.439809072
156384.67583022476	4361132.30488304
159295.0212572123	4327745.431292553
162259.5287078087	4300193.858320032
165279.2061464897	4272129.5458864225
168355.08029612005	4243542.951823121
171488.19698705408	4214424.356380113
174679.62151272455	4184763.8589212126
177930.43899185772	4154551.37455769
181241.75473742394	4123776.6307193246
184614.69463245454	4092429.163661629
188050.40551285836	4060498.3149080216
191550.0555573528	4027973.2276258892
195114.83468466165	3994842.842935099
198745.9549580986	3961095.896147875
202444.65099768018	3933514.6769746733
206212.18039991445	3907270.3677689317
210049.8241653915	3880537.6475032484
213958.88713434213	3853307.4267646875
217940.6984302958	3825570.4469847945
221996.61191199525	3797317.2772915903
226128.00663372793	3768538.311302945
230336.2873142131	3739223.76386034
234622.88481422624	3709363.6677017836
238989.25662310526	3678947.870072839
243436.8873543108	3647966.0292745973
247967.289250216	3616407.611147347
252582.00269627848	3586746.758465318
257282.59674479323	3562385.6839902136
262070.66964838552	3537571.2457739413
266947.8494034318	3512295.006640146
271915.7943036019	3486548.372395161
276976.1935036891	3460322.588905937
282130.76759394706	3433608.7391235046
287381.2691851069	3406397.740051096
292729.4835042813	3378680.3396558426
298177.22900196735	3350447.1137229456
303726.3579703311	3321688.4626513887
309378.75717301364	3292394.608189934
315136.34848664823	3262555.5901124235
321001.08955431683	3238623.44973109
326974.97445117676	3215751.001153933
333060.03436245886	3192452.8924168725
339258.33827409917	3168721.2019119035
345571.9936762143	3144547.8606085447
352003.1472796675	3119924.649310298
358553.9857459817	3094843.195859999
365226.7364308175	3069294.9722932335
372023.6681413066	3043271.2919387068
378947.09190746717	3016763.3064646944
385999.36176797637	2989762.0028705252
393182.87557057705	2962258.2004220304
400500.07578736113	2936679.712791017
407953.45034524484	2915733.9200753784
415545.53347188793	2894398.32259325
423278.90655735444	2872665.6660116026
431156.19903182285	2850528.560993025
439180.0892596086	2827979.4806832927
447353.3054498463	2805010.758152137
455678.6265841068	2781614.583786407
464158.8833612772	2757783.002634738
472796.9591600391	2733507.911702745
481595.79101923504	2708781.057197959
490558.37063650455	2683594.0317234164
499687.7453854889	2657938.2714190665
508987.0193519675	2637730.1220510914
518459.3543892913	2618306.1732750186
528107.971193433	2598520.741507124
537936.1503980698	2578367.0994874206
547947.2336900292	2557838.394760463
558144.6249454955	2536927.647345463
568531.7913873753	2515627.7473629736
579112.2647641759	2493931.452617509
589889.6425508494	2471831.3861350757
600867.5891719692	2449320.0336549454
612049.837247669	2426389.7410747227
623440.1888627863	2403032.7118478506
635042.5168595961	2381537.0837986623
646860.7661546321	2363945.0788924983
658898.9550799957	2346025.683781645
671161.1767496272	2327772.80567869
683651.6004510238	2309180.238408399
696374.4730628222	2290241.660297573
709334.1204987989	2270950.632025592
722534.9491787221	2251300.594434985
735981.4475265755	2231284.8663012483
749678.1874966878	2210896.642061143
763629.8261282243	2190128.9894987536
777841.1071286482	2168974.8473884384
792316.8624866261	2147427.0230939435
807062.0141149492	2130735.288143403
822081.575524054	2114578.7592341276
837380.6535266489	2098121.554572722
852964.4499741016	2081358.078532276
868838.2635251193	2064282.6313503098
885007.4914473438	2046889.4071907995
901477.6314524917	2029172.4921701204
918254.2835656281	2011125.862346267
935343.1520292377	1992743.38167065
952750.0472427299	1974018.7999017686
970480.8877380306	1954945.7504800712
988541.7021919573	1935517.7483632423
1006938.6314760271	1917818.8827309762
1025677.9307444209	1903307.4161951463
1044765.9715608053	1888525.888797869
1064209.2440647245	1873469.2746605654
1084014.359178331	1858132.454372194
1104188.0508541602	1842510.2132486037
1124737.1783647507	1826597.2395594867
1145668.7286348727	1810388.1227223251
1166989.8186171474	1793877.3514627477
1188707.6977119034	1777059.311940623
1210829.7502320393	1759928.2858413025
1233363.4979137746	1742478.4484313263
1256316.6024741214	1724703.8665779545
1279696.8682159416	1711141.123360544
1303512.2446815087	1697907.1276738227
1327770.829355429	1684426.8450755274
1352480.8704178738	1670695.692124328
1377650.769549055	1656709.000080267
1403289.084785873	1642462.0133173482
1429404.533431761	1627949.8877065617
1456005.9950206485	1613167.6889688342
1483102.514336103	1598110.3909973172
1510703.3044866556	1582772.8741484599
1538817.7500383465	1567149.9235012766
1567455.410205595	1551236.2270842113
1596626.022101425	1536880.0224694158
1626339.5040481905	1525062.8792791015
1656605.9589499151	1513025.8170432576
1687435.6777273756	1500764.743031028
1718839.1428171454	1488275.488345135
1750827.0317357269	1475553.8065044149
1783410.220710006	1462595.371999972
1816599.7883753285	1449395.7788244435
1850407.019542302	1435950.5389739303
1884843.4090337954	1422255.0809220108
1919920.6655932867	1408304.74806538
1955650.715865947	1394094.797140557
1992045.7084538713	1379620.396611113
2029118.0180466783	1368725.5602467041
2066880.2496290822	1358000.4585725393
2105345.242766708	1347075.7609312758
2144526.0759716653	1335947.7528080088
2184436.0711494284	1324612.6505600677
2225088.7981283693	1313066.6001305587
2266498.079273693	1301305.6757379267
2308677.994187172	1289325.8785411555
2351642.884494346	1277123.1352801207
2395407.358720879	1264693.2968906255
2439986.29725955	1252032.1370936919
2485394.857429798	1239135.3509585655
2531648.478631358	1227610.0330101515
2578762.8875937983	1218070.6621550382
2626754.1037238385	1208353.7619851278
2675638.4445520453	1198456.0286496684
2725432.531281028	1188374.0968126773
2776153.2944368036	1178104.538508698
2827817.979625338	1167643.861977257
2880444.1533962977	1156988.5104756171
2934049.709215787	1146134.8610694609
2988652.873550383	1135079.223401043
3044272.2120643063	1123817.8384344317
3100926.6359319235	1112346.8771774026
3158635.408267819	1100662.4393795247
3217418.1506763715	1091977.2285896693
3277294.849923382	1083346.8131793179
3338285.8647317644	1074555.7842696616
3400411.9327037027	1065601.152816153
3463694.1773717343	1056479.874147608
3528154.1153808828	1047188.8469310027
3593813.6638046256	1037724.9121169724
3660695.147596906	1028084.8518657067
3728821.30718283	1018265.3884528533
3798215.306190736	1008263.1831550443
3868900.7393279755	998074.8351147092
3940901.6404034477	987696.8801837349
4014242.490499326	978507.1746821267
4088948.226294856	970850.4473039773
4165044.248545185	963051.2269264809
4242556.430717777	955106.8617306765
4321511.127789762	947014.6505467969
4401935.1852088785	938771.8419358463
4483855.948021181	930375.6332540845
4567301.270168747	921823.1697000881
4652299.523960189	913111.5433440999
4738879.609717651	904237.7921392916
4827070.965603188	895198.8989146393
4916903.577628021	885991.7903490564
5008407.989848212	876613.3359264209
5101615.314749833	869723.7787044413
5196557.243827657	862810.735604528
5293266.058360566	855769.0395962292
5391774.640387494	848596.2964270307
5492116.483887789	841290.0672869667
5594325.706169377	833847.8679794082
5698437.0594691355	826267.1680764018
5804485.942768984	818545.3900582978
5912508.413831869	810679.9084373721
6022541.201461928	802668.0488651205
6134621.717992506	794507.0872229644
6248788.072006888	786194.2486960116
6365079.081295578	778899.0865496211
6483534.286054714	772775.950852852
6604193.962330305	766538.8625588763
6727099.135712336	760185.7009904727
6852291.595284057	753714.3060042528
6979813.907830667	747122.4772561919
7109709.432312423	740407.9734534923
7242022.334607315	733568.5115925099
7376797.60252773	726601.7661825198
7514081.061116962	719505.3684550166
7653919.388230155	712276.9055583094
7796360.130405221	704913.9197371296
7941451.71902934	697413.9074969604
8089243.486805938	691966.0455999402
8239785.684528512	686444.7980642545
8393129.498166373	680820.7991724553
8549327.066268368	675092.1367043243
8708431.497690724	669256.8628528939
8870496.889654402	663312.9935621821
9035578.34613892	657258.5078525855
9203731.99661823	651091.3471337254
9375015.01514529	644809.4145045092
9549485.639791967	638410.5740401547
9727203.192450536	631892.6500659577
9908228.099003786	625253.4264175369
10092621.909870483	619478.5284711315
10280447.320933098	614593.1914341436
10471768.194855202	609616.9374436281
10666649.582795387	604548.0745196097
10865157.746525371	599384.8791940779
11067360.180959744	594125.5959249892
11273325.63710487	588768.4364993646
11483124.14543511	583311.5794252764
11696827.039703846	577753.1693125225
11914506.981197748	572091.3162417739
12136237.983442418	566324.0951219797
12362095.437367693	560449.5450358195
12592156.13694151	554487.6390181613
12826498.3052806	550166.5353753228
13065201.621247198	545765.0152584296
13308347.24654076	541281.5821032153
13556017.853293689	536714.7114941002
13808297.652180923	532062.850645869
14065272.421052363	527324.4178757105
14327029.534098294	522497.8020654264
14593657.991557576	517581.362113635
14865248.449978571	512573.4263777798
15141893.25304352	507472.2921057501
15423686.462966273	502276.2248569293
15710723.892474487	496983.4579124661
16003103.137387017	492420.222956748
16300923.609797413	488528.1747575521
16604286.571875297	484563.694879114
16913295.17029647	480525.4353555582
17228054.471313924	476412.0231351349
17548671.49648152	472222.0596133675
17875255.259042352	467954.120157513
18207916.800994623	463606.7536221698
18546769.230846975	459178.48185587337
18891927.762076646	454667.79919850925
19243509.75230332	450073.1719693716
19601634.743191857	445393.03794569697
19966424.501097932	440678.36957012647
20338003.0584698	437237.60507524596
20716496.75602067	433732.8073676491
21102034.285685964	430162.7847783512
21494746.734379806	426526.32346120616
21894767.628566206	422822.1869801834
