# Frequency (Hz)	Real Part (Ohm/m)
1000.0	8602404.965606328
1018.6101701559753	8631553.218182605
1037.566678745186	8661243.924699077
1056.875971184804	8691487.18031587
1076.5446128423157	8722293.268065764
1096.5792912678098	8753672.66235052
1116.9868184678226	8785636.032502308
1137.7741332214914	8818194.246411385
1158.9483034398106	8851358.374221276
1180.5165285688054	8885139.692092787
1202.4861420374123	8919549.686037982
1224.8646137509306	8954600.05582556
1247.6595526308697	8990302.718958916
1270.8787092020582	9021070.997406758
1294.529978227916	9047036.850346802
1318.6214013947485	9073485.932228306
1343.1611700460153	9100427.236024093
1368.1576279674719	9127869.922067743
1393.619274224142	9155823.321168203
1419.5547660501015	9184296.937782358
1445.9729217920194	9213300.45324666
1472.882723907502	9242843.729068877
1500.2933220192183	9272936.810281107
1528.2140360258693	9303589.928855218
1556.654359271062	9334813.5071818
1585.6239617711371	9366361.629007304
1615.132693503091	9388399.327975428
1645.1905877536624	9410847.152271193
1675.807864530767	9433712.734396731
1706.9949340384078	9457003.848896345
1738.7624002162504	9480728.414999917
1771.1210643450886	9504894.499315554
1804.0819287193826	9529510.318572307
1837.6562003881704	9554584.242413959
1871.8552949655793	9580124.79624478
1906.690840512252	9606140.664128272
1942.1746814890264	9632640.691739831
1978.3188827841643	9659633.889374377
2015.1357338155585	9682038.80557317
2052.6377527092523	9700439.807864485
2090.8376905557498	9719183.255939484
2129.748535745521	9738275.522772467
2169.3835183851843	9757723.099939879
2209.756114795903	9777532.599827493
2250.880052095462	9797710.757878724
2292.7693128656488	9818264.434884721
2335.438139906479	9839200.619317133
2378.9010410788933	9860526.429704245
2423.1727942376006	9882249.11705138
2468.2684522556924	9904376.067306286
2514.2033481427966	9926493.889917163
2560.9931002584594	9940951.793361174
2608.6536176225477	9955678.760848375
2657.2011053245064	9970679.799706396
2706.652070033241	9985960.010450078
2757.0233256095826	10001524.588515723
2808.3319988231724	10017378.826027576
2860.5955351757416	10033528.113597214
2913.831704832789	10049977.942156425
2968.0586086656026	10066733.904824156
3023.2946844057765	10083801.698808262
3079.5587129142264	10101187.127342599
3136.8698245668766	10118896.101660194
3195.2475057592133	10132813.403971177
3254.711605531848	10143754.618174756
3315.282342319423	10154899.450236373
3376.9803108250912	10166251.689519018
3439.8264890229243	10177815.195906363
3503.8422452906757	10189593.901115179
3569.0493456752292	10201591.810032148
3635.4699612933177	10213813.002075575
3703.126675869927	10226261.632582441
3772.0424934169973	10238941.93422125
3842.240846055061	10251858.218431182
3913.745601980384	10265014.876888046
3986.581073580439	10277957.623685652
4060.7720257003657	10285430.726152062
4136.343684063274	10293042.904326962
4213.321743847289	10300796.746432958
4291.732378422157	10308694.888859909
4371.602248248501	10316740.017061338
4452.958509942655	10324934.866467524
4535.828825510186	10333282.223415563
4620.241371751313	10341784.926096758
4706.224849841281	10350445.865521632
4793.808495089106	10359267.986502917
4883.02208687788	10368254.2886568
4973.895958790063	10377407.82742284
5066.461008921268	10383807.364624742
5160.7487103859075	10388253.717984183
5256.791122018419	10392782.818736218
5354.620899273607	10397396.2068239
5454.271305329836	10402095.45084889
5555.7762223988775	10406882.148604792
5659.170163246242	10411757.92762041
5764.488282925873	10416724.445713157
5871.766390733255	10421783.391552692
5981.040962380945	10426936.485235112
6092.349152400711	10432185.478867786
6205.7288067765	10437532.157165116
6321.218475812449	10442592.0242087
6438.8574272404185	10444236.990445657
6558.685659571435	10445912.569784177
6680.743915695614	10447619.331939299
6805.073696735206	10449357.857228545
6931.717276155407	10451128.736769244
7060.717714137772	10452932.57267952
7192.118872221193	10454769.978283016
7325.96542821523	10456641.578317447
7462.302891391108	10458548.009146977
7601.17761795533	10460489.918978637
7742.636826811269	10462467.96808269
7886.728615614156	10464482.82901715
8033.501977124735	10464760.64542318
8183.00681586739	10463910.568116229
8335.293965098195	10463044.670725945
8490.415204088747	10462162.658837892
8648.423275731726	10461264.232558522
8809.37190447399	10460349.086413221
8973.31581458352	10459416.90924244
9140.310748756232	10458467.384095892
9310.413487069076	10457500.188124798
9483.681866285926	10456514.992472114
9660.174799522645	10455511.462160693
9839.952296278227	10454489.25597942
10023.075482838643	10453193.097986605
10209.606623060476	10450071.772105493
10399.609139541202	10446892.35781862
10593.1476351837	10443653.774090875
10790.287915161836	10440354.91976889
10991.097009294961	10436994.673206653
11195.643194838794	10433571.89188413
11403.99601970033	10430085.412018782
11616.22632608502	10426534.048169898
11832.40627458378	10422916.592835503
12052.609368708414	10419231.816041801
12276.910479883603	10415478.464924982
12505.385872903913	10411655.263305223
12738.113231864783	10406908.21578508
12975.171686575868	10401583.470000757
13216.641839466038	10396159.629791345
13462.60579298911	10390634.850992741
13713.147177539455	10385007.255120618
13968.351179887397	10379274.928731747
14228.30457214352	10373435.92277339
14493.09574126215	10367488.251920605
14762.81471909391	10361429.893901216
15037.553212997384	10355258.788808225
15317.404637020798	10348972.8383994
15602.46414366368	10342569.905383872
15892.828656229764	10335936.552229714
16188.596901781993	10328543.42979349
16489.86944471065	10321012.72009075
16796.74872092653	10313341.862599043
17109.339072690134	10305528.249144174
17427.746784089173	10297569.223013377
17752.08011717636	10289462.07805201
18082.44934877952	10281204.057743432
18418.96680799711	10272792.354271762
18761.746914391195	10264224.107567178
19110.90621689136	10255496.404333489
19466.56343342263	10246606.277057547
19828.83949127071	10237550.703000294
20197.857568198782	10228168.973313203
20573.743134329114	10218531.60268791
20956.623994804308	10208714.878955426
21346.630333242454	10198715.464323904
21743.8947560008	10188529.95888463
22148.55233726359	10178154.899456007
22560.74066496859	10167586.758406041
22980.599887588487	10156821.942452902
23408.272761782944	10145856.791443175
23843.904700937208	10134687.577107372
24287.643824604504	10123310.501792269
24739.64100886812	10111721.697169678
25200.049937640895	10099956.809599647
25669.027154919517	10088161.328611912
26146.732118010917	10076146.331715928
26633.327251749808	10063907.733683286
27128.978003724646	10051441.373258783
27633.852900531667	10038743.011745557
28148.123605075813	10025808.331563866
28671.964974937695	10012632.93478308
29205.55512182745	9999212.341626335
29749.075472144435	9985541.988947343
30302.71082866393	9971617.228678908
30866.649433372742	9957433.326252494
31441.08303147265	9942985.458988449
32026.206936576502	9928746.877392158
32622.220097116733	9914462.672097808
33229.325163989684	9899912.635312391
33847.72855945983	9885091.819866622
34477.640547344636	9869995.186523557
35119.275304507275	9854617.602265194
35772.850993678774	9838953.838547194
36438.58983763541	9822998.569521122
37116.71819475767	9806746.37022359
37807.466635993485	9790191.71473172
38511.070023255685	9773328.974284273
39227.76758927723	9756152.415367803
39957.803018952654	9738896.432110809
40701.42453219439	9722289.158441467
41458.88496832911	9705372.82058331
42230.441872066716	9688141.6667992
43016.35758106799	9670589.838311182
43816.89931514194	9652711.367308455
44632.33926710397	9634500.174918236
45462.95469532399	9615950.069138896
46309.02801799736	9597054.742734589
47170.84690917023	9577807.771090744
48048.704396551344	9558202.610029621
48942.89896114532	9538232.593585216
49853.73463873894	9517890.93173676
50781.5211232767	9498445.797097582
51726.57387216024	9479158.057251465
52689.21421350677	9459511.369284887
53669.76945540476	9439499.053112254
54668.57299720181	9419114.304330433
55685.96444286408	9398350.191905193
56722.28971644549	9377199.65581458
57777.90117970507	9355655.504648434
58853.1577519145	9333710.413163222
59948.42503189408	9311356.919791376
61064.07542232036	9288587.424104305
62200.48825634718	9265394.184228126
63358.04992658254	9242319.73708021
64537.15401646702	9220729.346190536
65738.20143409586	9198737.15445267
66961.60054853215	9176335.684284462
68207.76732865692	9153517.318944674
69477.1254846024	9130274.299943235
70770.10661181889	9106598.72440324
72087.15033782135	9082482.542373907
73428.70447166759	9057917.554093491
74795.22515621828	9032895.4072013
76187.17702322999	9007407.593897777
77605.0333513357	8981445.448051773
79049.2762269642	8955000.142253961
80520.39670825469	8930428.48250279
82018.8949920221	8906249.397283783
83545.28058382872	8881620.335174639
85100.07247122246	8856532.922028862
86683.79930019773	8830978.62785567
88296.99955494082	8804948.763919696
89940.22174092053	8778434.479786735
91614.0245713852	8751426.760314498
93318.9771573324	8723916.42258736
95055.65920101192	8695894.112794071
96824.66119303115	8667350.303047363
98626.5846131283	8638275.288144369
100462.04213468132	8609660.004822385
102331.65783302448	8583542.484769175
104236.06739764012	8556938.913223723
106175.9183482999	8529840.244685056
108151.87025522892	8502237.265313879
110164.59496336569	8474120.589799797
112214.77682079801	8445480.658170173
114303.11291144785	8416307.73253967
116430.31329208757	8386591.893799237
118597.10123376705	8356323.038243512
120804.21346773289	8325490.874135472
123052.40043592616	8294084.918207102
125342.42654613995	8262094.492094998
127675.07043192645	8233221.242310378
130051.12521734099	8204977.717491638
132471.39878661174	8176208.575870219
134936.71405883064	8146904.035627983
137447.90926775365	8117054.132905498
140005.8382468096	8086648.718414208
142611.37071941295	8055677.453985568
145265.39259467812	8024129.809055972
147968.80626863963	7991995.057086212
150722.53093107554	7959262.271914375
153527.5028780421	7925920.324040812
156384.67583022476	7891957.876843986
159295.0212572123	7858926.643791741
162259.5287078087	7829440.215755769
165279.2061464897	7799405.040276752
168355.08029612005	7768810.905071415
171488.19698705408	7737647.407804124
174679.62151272455	7705903.952550036
177930.43899185772	7673569.7461923305
181241.75473742394	7640633.794752447
184614.69463245454	7607084.899652026
188050.40551285836	7572911.653905233
191550.0555573528	7538102.438240313
195114.83468466165	7502645.417148876
198745.9549580986	7466528.534861698
202444.65099768018	7434864.080534836
206212.18039991445	7404005.96105903
210049.8241653915	7372573.56672909
213958.88713434213	7340556.21019226
217940.6984302958	7307943.005202331
221996.61191199525	7274722.862918217
226128.00663372793	7240884.48813358
230336.2873142131	7206416.375436404
234622.88481422624	7171306.805296979
238989.25662310526	7135543.840083152
243436.8873543108	7099115.320001421
247967.289250216	7062008.858962428
252582.00269627848	7026368.045309244
257282.59674479323	6995141.722319104
262070.66964838552	6963334.272144765
266947.8494034318	6930934.879910463
271915.7943036019	6897932.52947372
276976.1935036891	6864315.9996798085
282130.76759394706	6830073.860546378
287381.2691851069	6795194.469377167
292729.4835042813	6759665.966803366
298177.22900196735	6723476.272751274
303726.3579703311	6686613.082334984
309378.75717301364	6649063.861672553
315136.34848664823	6610815.843624366
321001.08955431683	6578209.395601905
326974.97445117676	6546475.865587353
333060.03436245886	6514151.769179581
339258.33827409917	6481226.115837523
345571.9936762143	6447687.710484267
352003.1472796675	6413525.149700637
358553.9857459817	6378726.81784785
365226.7364308175	6343280.883118144
372023.6681413066	6307175.29351178
378947.09190746717	6270397.772739256
385999.36176797637	6232935.816047248
393182.87557057705	6194776.685966819
400500.07578736113	6158586.909624196
407953.45034524484	6127340.32877991
415545.53347188793	6095512.243749313
423278.90655735444	6063091.832640568
431156.19903182285	6030068.072164553
439180.0892596086	5996429.733886895
447353.3054498463	5962165.380410123
455678.6265841068	5927263.361484861
464158.8833612772	5891711.810048621
472796.9591600391	5855498.638190837
481595.79101923504	5818611.533042894
490558.37063650455	5781037.952591585
499687.7453854889	5742765.121414707
508987.0193519675	5710981.528569836
518459.3543892913	5680016.673108532
528107.971193433	5648475.55641824
537936.1503980698	5616347.454179431
547947.2336900292	5583621.442491169
558144.6249454955	5550286.394156868
568531.7913873753	5516330.9749009
579112.2647641759	5481743.639514864
589889.6425508494	5446512.627932055
600867.5891719692	5410625.9612289155
612049.837247669	5374071.43755211
623440.1888627863	5336836.6279697
635042.5168595961	5301963.233942002
646860.7661546321	5272165.788140748
658898.9550799957	5241813.8068029145
671161.1767496272	5210896.969927821
683651.6004510238	5179404.7654577885
696374.4730628222	5147326.485703986
709334.1204987989	5114651.223705657
722534.9491787221	5081367.869521639
735981.4475265755	5047465.1064529065
749678.1874966878	5012931.407194697
763629.8261282243	4977755.029917184
777841.1071286482	4941924.014273064
792316.8624866261	4905426.177330942
807062.0141149492	4875834.983335533
822081.575524054	4846913.623217452
837380.6535266489	4817454.031666437
852964.4499741016	4787446.192103932
868838.2635251193	4756879.90154115
885007.4914473438	4725744.767109964
901477.6314524917	4694030.202529184
918254.2835656281	4661725.42450513
935343.1520292377	4628819.449065201
952750.0472427299	4595301.0878231805
970480.8877380306	4561158.944175102
988541.7021919573	4526381.409424242
1006938.6314760271	4494203.099520711
1025677.9307444209	4466886.814868987
1044765.9715608053	4439062.169511861
1064209.2440647245	4410719.702770114
1084014.359178331	4381849.777899661
1104188.0508541602	4352442.57881498
1124737.1783647507	4322488.106751523
1145668.7286348727	4291976.176866026
1166989.8186171474	4260896.414773579
1188707.6977119034	4229238.253020183
1210829.7502320393	4196990.927489733
1233363.4979137746	4164143.4737440846
1256316.6024741214	4130684.7232950362
1279696.8682159416	4104139.533583761
1303512.2446815087	4078064.4674281203
1327770.829355429	4051504.139854494
1352480.8704178738	4024449.5200653244
1377650.769549055	3996891.4091983703
1403289.084785873	3968820.4371990096
1429404.533431761	3940227.059634294
1456005.9950206485	3911101.5544477673
1483102.514336103	3881434.018653839
1510703.3044866556	3851214.364970675
1538817.7500383465	3820432.318390416
1567455.410205595	3789077.412685549
1596626.022101425	3760403.1648445753
1626339.5040481905	3736136.913790892
1656605.9589499151	3711419.063676049
1687435.6777273756	3686241.2101646815
1718839.1428171454	3660594.7925153063
1750827.0317357269	3634471.090669581
1783410.220710006	3607861.2222874085
1816599.7883753285	3580756.1397268106
1850407.019542302	3553146.626967671
1884843.4090337954	3525023.2964781593
1919920.6655932867	3496376.5860228827
1955650.715865947	3467196.755411631
1992045.7084538713	3437473.8831875743
2029118.0180466783	3414349.6685505323
2066880.2496290822	3391487.240547018
2105345.242766708	3368199.3388681766
2144526.0759716653	3344478.0453765225
2184436.0711494284	3320315.2945766626
2225088.7981283693	3295702.870872984
2266498.079273693	3270632.4057762288
2308677.994187172	3245095.37505813
2351642.884494346	3219083.0958530963
2395407.358720879	3192586.723705905
2439986.29725955	3165597.249564542
2485394.857429798	3138105.4967169883
2531648.478631358	3113244.748815839
2578762.8875937983	3092212.5227287975
2626754.1037238385	3070788.883335514
2675638.4445520453	3048966.5463677626
2725432.531281028	3026738.091995841
2776153.2944368036	3004095.9623057507
2827817.979625338	2981032.4587294394
2880444.1533962977	2957539.739427174
2934049.709215787	2933609.81662127
2988652.873550383	2909234.5538801295
3044272.2120643063	2884405.6633517756
3100926.6359319235	2859114.7029459113
3158635.408267819	2833353.07346348
3217418.1506763715	2813663.6418734677
3277294.849923382	2794048.6016995045
3338285.8647317644	2774068.5222902866
3400411.9327037027	2753716.610203537
3463694.1773717343	2732985.9455698496
3528154.1153808828	2711869.4797398844
3593813.6638046256	2690360.0328877303
3660695.147596906	2668450.291569695
3728821.30718283	2646132.806237662
3798215.306190736	2623399.9887061417
3868900.7393279755	2600244.109572238
3940901.6404034477	2576657.2955875406
4014242.490499326	2555557.072736564
4088948.226294856	2537672.9626927413
4165044.248545185	2519456.0263179094
4242556.430717777	2500900.0696574235
4321511.127789762	2481998.7834860804
4401935.1852088785	2462745.7411629185
4483855.948021181	2443134.396446107
4567301.270168747	2423158.081267123
4652299.523960189	2402810.0034635724
4738879.609717651	2382083.24446975
4827070.965603188	2360970.756964268
4916903.577628021	2339465.362473898
5008407.989848212	2317559.7489327863
5101615.314749833	2301088.2297517033
5196557.243827657	2284539.8792268974
5293266.058360566	2267683.5610830225
5391774.640387494	2250513.543990291
5492116.483887789	2233023.9899578784
5594325.706169377	2215208.952348972
5698437.0594691355	2197062.3738588304
5804485.942768984	2178578.084455235
5912508.413831869	2159749.7992806304
6022541.201461928	2140571.1165151782
6134621.717992506	2121035.5152000943
6248788.072006888	2101136.353020438
6365079.081295578	2083520.2948835855
6483534.286054714	2068536.3034520587
6604193.962330305	2053273.457390372
6727099.135712336	2037726.5671664146
6852291.595284057	2021890.3466699931
6979813.907830667	2005759.4114155038
7109709.432312423	1989328.2767111578
7242022.334607315	1972591.3557941034
7376797.60252773	1955542.957930898
7514081.061116962	1938177.2864825714
7653919.388230155	1920488.4369337168
7796360.130405221	1902470.3948848983
7941451.71902934	1884117.0340076704
8089243.486805938	1870524.1554198684
8239785.684528512	1856743.4912292615
8393129.498166373	1842706.3665332037
8549327.066268368	1828408.0085580542
8708431.497690724	1813843.555708033
8870496.889654402	1799008.055912246
9035578.34613892	1783896.46494091
9203731.99661823	1768503.6446902687
9375015.01514529	1752824.3614355843
9549485.639791967	1736853.2840516067
9727203.192450536	1720584.9821999387
9908228.099003786	1704013.9244826622
10092621.909870483	1689492.796721089
10280447.320933098	1677081.5916722307
10471768.194855202	1664439.4119855722
10666649.582795387	1651561.959183803
10865157.746525371	1638444.8547942175
11067360.180959744	1625083.638859986
11273325.63710487	1611473.7684237296
11483124.14543511	1597610.6159828533
11696827.039703846	1583489.4679161545
11914506.981197748	1569105.5228811363
12136237.983442418	1554453.8901815012
12362095.437367693	1539529.5881042643
12592156.13694151	1524381.1868295278
12826498.3052806	1513228.0796711724
13065201.621247198	1501867.4112908319
13308347.24654076	1490295.3189388462
13556017.853293689	1478507.8679791302
13808297.652180923	1466501.0505513495
14065272.421052363	1454270.7842082062
14327029.534098294	1441812.9105273637
14593657.991557576	1429123.1936975375
14865248.449978571	1416197.3190782785
15141893.25304352	1403030.8917329405
15423686.462966273	1389619.4349343597
15710723.892474487	1375958.3886427172
16003103.137387017	1364106.0648521264
16300923.609797413	1353916.93787896
16604286.571875297	1343538.1895190817
16913295.17029647	1332966.2908862196
17228054.471313924	1322197.6474209283
17548671.49648152	1311228.5976683984
17875255.259042352	1300055.4120335258
18207916.800994623	1288674.2915128034
18546769.230846975	1277081.3664026249
18891927.762076646	1265272.6949835406
19243509.75230332	1253244.2621800292
19601634.743191857	1240991.9781953366
19966424.501097932	1228645.016442488
20338003.0584698	1219522.382589286
20716496.75602067	1210229.9749678057
21102034.285685964	1200764.634059329
21494746.734379806	1191123.1415459628
21894767.628566206	1181302.2192163654
22302232.979659364	1171298.5278511255
