Frequency [GHz]	Zx imag [Ohm/m]	Zy imag [Ohm/m]
1.000000000000000166e-10	7.939131746289080940e+06	2.241318034187557548e+07
1.032794731918951654e-10	7.939130573567158543e+06	2.241317865298835561e+07
1.066664958279539403e-10	7.939129362386133522e+06	2.241317690871452913e+07
1.101645949633656381e-10	7.939128111484752037e+06	2.241317510723771155e+07
1.137774133221491146e-10	7.939126819560395554e+06	2.241317324668194726e+07
1.175087130904807540e-10	7.939125485267726704e+06	2.241317132510975003e+07
1.213623798344240958e-10	7.939124107217285782e+06	2.241316934052011371e+07
1.253424265461399975e-10	7.939122683974050917e+06	2.241316729084639251e+07
1.294529978227915867e-10	7.939121214055935852e+06	2.241316517395416647e+07
1.336983741824946476e-10	7.939119695932250470e+06	2.241316298763903230e+07
1.380829765218092491e-10	7.939118128022104502e+06	2.241316072962427512e+07
1.426113707194128486e-10	7.939116508692766540e+06	2.241315839755852893e+07
1.472882723907502473e-10	7.939114836257956922e+06	2.241315598901331425e+07
1.521185517986104510e-10	7.939113108976096846e+06	2.241315350148050487e+07
1.571072389247450498e-10	7.939111325048490427e+06	2.241315093236972392e+07
1.622595287078087593e-10	7.939109482617456466e+06	2.241314827900564298e+07
1.675807864530767868e-10	7.939107579764390364e+06	2.241314553862519562e+07
1.730765534195724819e-10	7.939105614507768303e+06	2.241314270837470889e+07
1.787525525904235329e-10	7.939103584801083431e+06	2.241313978530691564e+07
1.846146946324547531e-10	7.939101488530710340e+06	2.241313676637789980e+07
1.906690840512252406e-10	7.939099323513712734e+06	2.241313364844391495e+07
1.969220255479172543e-10	7.939097087495563552e+06	2.241313042825812101e+07
2.033800305846981002e-10	7.939094778147798032e+06	2.241312710246719792e+07
2.100498241653915480e-10	7.939092393065591343e+06	2.241312366760785133e+07
2.169383518385184289e-10	7.939089929765254259e+06	2.241312012010321394e+07
2.240527869300018610e-10	7.939087385681642219e+06	2.241311645625911281e+07
2.314005380130653023e-10	7.939084758165489882e+06	2.241311267226022854e+07
2.389892566231049743e-10	7.939082044480650686e+06	2.241310876416611299e+07
2.468268452255692806e-10	7.939079241801243275e+06	2.241310472790709883e+07
2.549214654451423314e-10	7.939076347208717838e+06	2.241310055928004906e+07
2.632815465648021228e-10	7.939073357688805088e+06	2.241309625394399837e+07
2.719157943036017723e-10	7.939070270128388889e+06	2.241309180741560459e+07
2.808331998823172083e-10	7.939067081312255934e+06	2.241308721506450325e+07
2.900430493863991314e-10	7.939063787919753231e+06	2.241308247210847959e+07
2.995549334359813486e-10	7.939060386521326378e+06	2.241307757360848412e+07
3.093787571730138678e-10	7.939056873574948870e+06	2.241307251446349546e+07
3.195247505759212065e-10	7.939053245422438718e+06	2.241306728940520063e+07
3.300034791125284578e-10	7.939049498285638168e+06	2.241306189299252257e+07
3.408258547423451742e-10	7.939045628262490965e+06	2.241305631960593536e+07
3.520031472796679687e-10	7.939041631322972476e+06	2.241305056344163045e+07
3.635469961293320139e-10	7.939037503304893151e+06	2.241304461850545928e+07
3.754694224073336536e-10	7.939033239909568802e+06	2.241303847860670090e+07
3.877828414589456106e-10	7.939028836697337218e+06	2.241303213735160977e+07
4.005000757873611052e-10	7.939024289082940668e+06	2.241302558813675493e+07
4.136343684063274911e-10	7.939019592330749147e+06	2.241301882414215803e+07
4.271993966306778827e-10	7.939014741549829021e+06	2.241301183832416683e+07
4.412092863191189219e-10	7.939009731688848697e+06	2.241300462340815365e+07
4.556786265841064474e-10	7.939004557530820370e+06	2.241299717188089713e+07
4.706224849841281415e-10	7.938999213687666692e+06	2.241298947598280758e+07
4.860564232142136024e-10	7.938993694594609551e+06	2.241298152769980207e+07
5.019965133110081441e-10	7.938987994504375383e+06	2.241297331875498593e+07
5.184593543892912175e-10	7.938982107481210493e+06	2.241296484060002491e+07
5.354620899273606527e-10	7.938976027394697070e+06	2.241295608440624177e+07
5.530224256192902378e-10	7.938969747913379222e+06	2.241294704105543345e+07
5.711586478126431938e-10	7.938963262498152442e+06	2.241293770113036036e+07
5.898896425508497150e-10	7.938956564395473339e+06	2.241292805490494892e+07
6.092349152400710261e-10	7.938949646630312316e+06	2.241291809233415872e+07
6.292146109610343618e-10	7.938942501998896711e+06	2.241290780304353312e+07
6.498495354469890483e-10	7.938935123061209917e+06	2.241289717631837726e+07
6.711611767496282870e-10	7.938927502133239992e+06	2.241288620109261945e+07
6.931717276155404727e-10	7.938919631278979592e+06	2.241287486593727395e+07
7.159041085964887260e-10	7.938911502302164212e+06	2.241286315904854983e+07
7.393819919175865964e-10	7.938903106737732887e+06	2.241285106823555008e+07
7.636298261282244400e-10	7.938894435843017884e+06	2.241283858090757206e+07
7.886728615614152294e-10	7.938885480588633567e+06	2.241282568406102806e+07
8.145371766280743462e-10	7.938876231649083085e+06	2.241281236426585540e+07
8.412497049736117954e-10	7.938866679393040016e+06	2.241279860765157267e+07
8.688382635251186617e-10	7.938856813873320818e+06	2.241278439989281073e+07
8.973315814583522479e-10	7.938846624816526659e+06	2.241276972619441152e+07
9.267593301146878953e-10	7.938836101612347178e+06	2.241275457127600163e+07
9.571521538991863169e-10	7.938825233302506618e+06	2.241273891935611144e+07
9.885417021919573871e-10	7.938814008569358848e+06	2.241272275413570181e+07
1.020960662306046580e-09	7.938802719271225855e+06	2.241270608407674357e+07
1.054442793526168950e-09	7.938791231121657416e+06	2.241268888160913438e+07
1.089022962263730067e-09	7.938779366221304052e+06	2.241267111499121040e+07
1.124737178364752061e-09	7.938767112214723602e+06	2.241265276572181284e+07
1.161622632608501755e-09	7.938754456341282465e+06	2.241263381469304860e+07
1.199717735435884489e-09	7.938741385421865620e+06	2.241261424217037484e+07
1.239062156947916503e-09	7.938727885845149867e+06	2.241259402777206898e+07
1.279696868215940940e-09	7.938713943553433754e+06	2.241257315044798702e+07
1.321664183946605026e-09	7.938699544027999975e+06	2.241255158845765889e+07
1.365007806546013663e-09	7.938684672273989767e+06	2.241252931934763864e+07
1.409772871628966933e-09	7.938669312804792076e+06	2.241250631992812455e+07
1.456005995020649598e-09	7.938653449625921436e+06	2.241248256624881551e+07
1.503755321299737753e-09	7.938637066218351014e+06	2.241245803357395902e+07
1.553070573933460069e-09	7.938620145521322265e+06	2.241243269635660946e+07
1.604003107056820079e-09	7.938602669914570637e+06	2.241240652821200714e+07
1.656605958949914401e-09	7.938584621199980378e+06	2.241237950189011917e+07
1.710933907269014249e-09	7.938565980582633056e+06	2.241235158924724907e+07
1.767043526088946692e-09	7.938546728651236743e+06	2.241232276121674106e+07
1.824993244816152494e-09	7.938526845357912593e+06	2.241229298777869716e+07
1.884843409033795523e-09	7.938506309997313656e+06	2.241226223792873695e+07
1.946656343342262358e-09	7.938485101185068488e+06	2.241223047964569181e+07
2.010496416260498236e-09	7.938463196835512295e+06	2.241219767985826358e+07
2.076430107255774870e-09	7.938440574138684198e+06	2.241216380441060290e+07
2.144526075971667793e-09	7.938417209536577575e+06	2.241212881802671775e+07
2.214855233726359314e-09	7.938393078698609956e+06	2.241209268427374959e+07
2.287490817355702788e-09	7.938368156496279873e+06	2.241205536552404240e+07
2.362508465477946229e-09	7.938342416977004148e+06	2.241201682291594520e+07
2.439986297259550245e-09	7.938315833337094635e+06	2.241197701631334424e+07
2.520004993764092080e-09	7.938288377893841825e+06	2.241193590426388010e+07
2.602647881969005809e-09	7.938260022056687623e+06	2.241189344395577908e+07
2.688001021537606561e-09	7.938230736297454685e+06	2.241184959117325768e+07
2.776153294436799262e-09	7.938200490119599737e+06	2.241180430025048926e+07
2.867196497493770032e-09	7.938169252026448958e+06	2.241175752402404696e+07
2.961225437988034610e-09	7.938136989488408901e+06	2.241170921378380060e+07
3.058338032378433485e-09	7.938103668909082189e+06	2.241165931922217458e+07
3.158635408267817403e-09	7.938069255590290762e+06	2.241160778838177770e+07
3.262222009711669644e-09	7.938033713695932180e+06	2.241155456760128215e+07
3.369205705980266915e-09	7.937997006214679219e+06	2.241149960145956278e+07
3.479697903887691433e-09	7.937959094921417534e+06	2.241144283271795511e+07
3.593813663804627762e-09	7.937919940337455831e+06	2.241138420226068795e+07
3.711671819475765297e-09	7.937879501689410768e+06	2.241132364903329313e+07
3.833395101766601886e-09	7.937837736866744235e+06	2.241126110997903720e+07
3.959110266468459240e-09	7.937794602377914824e+06	2.241119651997326314e+07
4.088948226294862618e-09	7.937750053305086680e+06	2.241112981175556779e+07
4.223044187206674123e-09	7.937704043257358484e+06	2.241106091585975513e+07
4.361537789208003199e-09	7.937656524322450161e+06	2.241098976054150611e+07
4.504573251759458750e-09	7.937607447016809136e+06	2.241091627170367166e+07
4.652299523960189308e-09	7.937556760234086774e+06	2.241084037281910330e+07
4.804870439655131104e-09	7.937504411191914231e+06	2.241076198485095799e+07
4.962444877628916452e-09	7.937450345376935787e+06	2.241068102617041394e+07
5.125186927053329472e-09	7.937394506488050334e+06	2.241059741247164831e+07
5.293266058360561204e-09	7.937336836377772503e+06	2.241051105668404326e+07
5.466857299720180771e-09	7.937277274991688319e+06	2.241042186888153851e+07
5.646141419303669251e-09	7.937215760305915028e+06	2.241032975618895516e+07
5.831305113526221869e-09	7.937152228262512945e+06	2.241023462268531322e+07
6.022541201461928965e-09	7.937086612702779472e+06	2.241013636930392310e+07
6.220048825634711276e-09	7.937018845298354514e+06	2.241003489372923225e+07
6.424033659394191079e-09	7.936948855480068363e+06	2.240993009029027075e+07
6.634708121092347870e-09	7.936876570364454761e+06	2.240982184985062480e+07
6.852291595284060743e-09	7.936801914677852765e+06	2.240971005969477817e+07
7.077010661181889919e-09	7.936724810678021982e+06	2.240959460341073945e+07
7.309099328602911004e-09	7.936645178073187359e+06	2.240947536076882109e+07
7.548799281653435948e-09	7.936562933938425966e+06	2.240935220759642124e+07
7.796360130405233414e-09	7.936477992629311979e+06	2.240922501564874873e+07
8.052039670825474778e-09	7.936390265692736953e+06	2.240909365247525275e+07
8.316104153230961616e-09	7.936299661774794571e+06	2.240895798128169775e+07
8.588828559546249041e-09	7.936206086525653489e+06	2.240881786078771949e+07
8.870496889654407999e-09	7.936109442501301877e+06	2.240867314507970586e+07
9.161402457138517586e-09	7.936009629062079825e+06	2.240852368345884234e+07
9.461848194721997291e-09	7.935906542267876677e+06	2.240836932028418779e+07
9.772146969725725887e-09	7.935800074769893661e+06	2.240820989481060952e+07
1.009262190987047331e-08	7.935690992105092853e+06	2.240804535284795612e+07
1.042360673976401127e-08	7.935580558797597885e+06	2.240787569889470935e+07
1.076544612842315905e-08	7.935466503859388642e+06	2.240770048118554428e+07
1.111849604819270880e-08	7.935348708520057611e+06	2.240751951725858077e+07
1.148312414543511117e-08	7.935227050114152022e+06	2.240733261866814271e+07
1.185971012337669343e-08	7.935101401953439228e+06	2.240713959078853950e+07
1.224864613750930795e-08	7.934971633194978349e+06	2.240694023261136562e+07
1.265033720395903769e-08	7.934837813151733018e+06	2.240673437107785046e+07
1.306520162124721228e-08	7.934700781927229837e+06	2.240652195729605481e+07
1.349367140588306343e-08	7.934559256800455041e+06	2.240630257746123523e+07
1.393619274224142065e-08	7.934413090395086445e+06	2.240607600312353671e+07
1.439322644719406651e-08	7.934262130501640029e+06	2.240584199834117666e+07
1.486524844997857277e-08	7.934106219918956049e+06	2.240560031943471357e+07
1.535275028780422776e-08	7.933945196290510707e+06	2.240535071473330259e+07
1.585623961771137302e-08	7.933778918870422058e+06	2.240509292888305336e+07
1.637624074521687477e-08	7.933609077249966562e+06	2.240482700951674953e+07
1.691329517029648562e-08	7.933433665719100274e+06	2.240455236939611286e+07
1.746796215127245689e-08	7.933252501614103094e+06	2.240426872252634540e+07
1.804081928719382751e-08	7.933065396280848421e+06	2.240397577353352308e+07
1.863246311931559514e-08	7.932872154878349975e+06	2.240367321735701710e+07
1.924350975230330612e-08	7.932672576175861061e+06	2.240336073893181235e+07
1.987459549580983990e-08	7.932466452343326993e+06	2.240303801286042109e+07
2.052637752709252173e-08	7.932255889215206727e+06	2.240270518006647006e+07
2.119953457536071000e-08	7.932038746648075990e+06	2.240236149910609797e+07
2.189476762856620985e-08	7.931814482948667370e+06	2.240200654722075909e+07
2.261280066337277307e-08	7.931582864581356756e+06	2.240163995478349924e+07
2.335438139906479724e-08	7.931343650351783261e+06	2.240126134004553780e+07
2.412028207618007283e-08	7.931096591155679896e+06	2.240087030873874202e+07
2.491130026067788373e-08	7.930841429719473235e+06	2.240046645366506651e+07
2.572825967447932303e-08	7.930580568528153934e+06	2.240004994790181145e+07
2.657201105324503850e-08	7.930312091072898358e+06	2.239961999176861718e+07
2.744343303228365032e-08	7.930034808971471153e+06	2.239917593533930182e+07
2.834343306151309448e-08	7.929748433477861807e+06	2.239871731619842350e+07
2.927294835042816131e-08	7.929452666376711801e+06	2.239824365676577017e+07
3.023294684405776334e-08	7.929147199672767892e+06	2.239775446379899979e+07
3.122442823092858392e-08	7.928831715270158835e+06	2.239724922788003087e+07
3.224842498408442807e-08	7.928508882901365869e+06	2.239672815038357675e+07
3.330600343624588813e-08	7.928177434919074178e+06	2.239619046267708018e+07
3.439826489022924478e-08	7.927835117189056240e+06	2.239563514164638892e+07
3.552634676578139226e-08	7.927481573240851052e+06	2.239506160901136696e+07
3.669142378402493899e-08	7.927116434913643636e+06	2.239446926752733439e+07
3.789470919074667737e-08	7.926739321972882375e+06	2.239385750036312640e+07
3.913745601980383687e-08	7.926349841714325361e+06	2.239322567045877501e+07
4.042095839796305955e-08	7.925950756095651537e+06	2.239257398263819888e+07
4.174655289253134782e-08	7.925542191830628552e+06	2.239190190598197281e+07
4.311561990318228626e-08	7.925120228810061701e+06	2.239120778875197843e+07
4.452958509942655287e-08	7.924684427625357173e+06	2.239049090813350305e+07
4.598992090522439315e-08	7.924234334457629360e+06	2.238975051760733128e+07
4.749814803228499868e-08	7.923769480605128221e+06	2.238898584617233649e+07
4.905583706365045989e-08	7.923289381995151751e+06	2.238819609754262492e+07
5.066461008921269181e-08	7.922796607509386726e+06	2.238738137067997456e+07
5.232614239486661694e-08	7.922293843837223016e+06	2.238654177786795795e+07
5.404216420705915059e-08	7.921774592165213078e+06	2.238567465083475038e+07
5.581446249454960394e-08	7.921238311773820780e+06	2.238477908660295233e+07
5.764488282925879445e-08	7.920684444210758433e+06	2.238385415258225054e+07
5.953533130814369715e-08	7.920112412709448487e+06	2.238289888559830189e+07
6.148777653810024108e-08	7.919521621588402428e+06	2.238191229088970274e+07
6.350425168595962148e-08	7.918913938011577353e+06	2.238089416649178416e+07
6.558685659571428548e-08	7.918296416903153062e+06	2.237984600844478980e+07
6.773775997517751128e-08	7.917658644355523400e+06	2.237876347633563727e+07
6.995920165435375620e-08	7.916999956228168681e+06	2.237764544287616760e+07
7.225349491787214948e-08	7.916319666600259952e+06	2.237649074380911887e+07
7.462302891391107044e-08	7.915617067056375556e+06	2.237529817669571936e+07
7.707027114212294845e-08	7.914891425948804244e+06	2.237406649966354296e+07
7.959777002314985573e-08	7.914143065608125180e+06	2.237279482868403569e+07
8.220815755240541849e-08	7.913386109292013571e+06	2.237148734959898517e+07
8.490415204088747078e-08	7.912604328796441667e+06	2.237013699208784848e+07
8.768856094587425811e-08	7.911796910019095987e+06	2.236874234996414185e+07
9.056428379445295063e-08	7.910963012159402482e+06	2.236730197092586383e+07
9.353431520292386860e-08	7.910101766842951998e+06	2.236581435504316166e+07
9.660174799522647250e-08	7.909212277217232622e+06	2.236427795319639146e+07
9.976977642363202159e-08	7.908293617017692886e+06	2.236269116546293721e+07
1.030416994950587396e-07	7.907366191057413816e+06	2.236106106407891959e+07
1.064209244064724761e-07	7.906410020264693536e+06	2.235937818597277626e+07
1.099109700929497372e-07	7.905422492107157595e+06	2.235764011833028868e+07
1.135154708920999096e-07	7.904402578228433616e+06	2.235584505122540891e+07
1.172381803286598596e-07	7.903349216547476128e+06	2.235399111537604779e+07
1.210829750232039531e-07	7.902261310152577236e+06	2.235207638019751385e+07
1.250538587290391570e-07	7.901137726159105077e+06	2.235009885179210082e+07
1.291549665014884007e-07	7.900001779401072301e+06	2.234806760969540477e+07
1.333905690039058854e-07	7.898835080401980318e+06	2.234597271095931903e+07
1.377650769549053468e-07	7.897630119821985252e+06	2.234380911058078334e+07
1.422830457214352017e-07	7.896385642882795073e+06	2.234157455550785735e+07
1.469491800624817218e-07	7.895100353656005114e+06	2.233926671880035475e+07
1.517683390283405561e-07	7.893772913713584654e+06	2.233688319720671698e+07
1.567455410205594968e-07	7.892401940734113567e+06	2.233442150866139680e+07
1.618859690178197646e-07	7.891013178015471436e+06	2.233189277057821676e+07
1.671949759731990056e-07	7.889593277721536346e+06	2.232928835705422610e+07
1.726780903884356132e-07	7.888126812178109773e+06	2.232659853248691186e+07
1.783410220710008120e-07	7.886612254290319979e+06	2.232382049584400281e+07
1.841896680799711039e-07	7.885048026882622391e+06	2.232095135423412919e+07
1.902301188668944219e-07	7.883432501056429930e+06	2.231798811989431828e+07
1.964686646180446931e-07	7.881763994493859820e+06	2.231492770707872510e+07
2.029118018046678038e-07	7.880069527695799246e+06	2.231178300704518333e+07
2.095662399480432992e-07	7.878346314880675636e+06	2.230855017410768569e+07
2.164389086064020114e-07	7.876566589763240889e+06	2.230521132128066570e+07
2.235369645909794139e-07	7.874728499037689529e+06	2.230176297167026624e+07
2.308677994187169850e-07	7.872830128619551659e+06	2.229820153435882926e+07
2.384390470093720426e-07	7.870869501652467996e+06	2.229452330066552013e+07
2.462585916350547006e-07	7.868844576449605636e+06	2.229072444028430432e+07
2.543345761304648365e-07	7.866781502389195375e+06	2.228681853380866349e+07
2.626754103723835758e-07	7.864696506320144981e+06	2.228281291723769158e+07
2.712897800372467241e-07	7.862543133363957517e+06	2.227867593754510209e+07
2.801866556459195443e-07	7.860319141118951142e+06	2.227440328671254218e+07
2.893753019050950594e-07	7.858022213644479401e+06	2.226999051544134691e+07
2.988652873550382326e-07	7.855649959049245343e+06	2.226543302851929143e+07
3.086664943337274455e-07	7.853199907000516541e+06	2.226072608003539965e+07
3.187891292677645596e-07	7.850693723389645107e+06	2.225588144342508540e+07
3.292437333007768907e-07	7.848179185160692781e+06	2.225092876798051968e+07
3.400411932703706463e-07	7.845582183324621990e+06	2.224581367087246850e+07
3.511927530450727317e-07	7.842900013509545475e+06	2.224053082552601770e+07
3.627100252330649086e-07	7.840129882654420100e+06	2.223507473068266362e+07
3.746050032748993774e-07	7.837268906100522727e+06	2.222943970467159897e+07
3.868900739327976195e-07	7.834314104587512091e+06	2.222361987949313968e+07
3.995780301895269929e-07	7.831276976295888424e+06	2.221762032251863554e+07
4.126820845702951630e-07	7.828255044712210074e+06	2.221151165788625553e+07
4.262158829015325345e-07	7.825134009692367166e+06	2.220520266123487428e+07
4.401935185208874400e-07	7.821910621165739372e+06	2.219868676272963360e+07
4.546295469532399562e-07	7.818581522476510145e+06	2.219195717707970366e+07
4.695390010680058238e-07	7.815143246888236143e+06	2.218500689647245780e+07
4.849374067335232931e-07	7.811592213973780163e+06	2.217782868327593431e+07
5.008407989848212921e-07	7.807924725886859931e+06	2.217041506250197813e+07
5.172657387216018967e-07	7.804303128400466405e+06	2.216289901708338410e+07
