# Frequency (Hz)	Imaginary Part (Ohm)
1000.0	2.8150288268219272
1018.6101701559753	2.855230834339086
1037.566678745186	2.8961810080567525
1056.875971184804	2.9378932714752204
1076.544612842316	2.9803818072134987
1096.5792912678098	3.023661061831542
1116.9868184678226	3.067745750742251
1137.7741332214914	3.1126508632148644
1158.9483034398106	3.158391667471463
1180.5165285688056	3.2049837158783516
1202.4861420374123	3.2524428502340044
1224.8646137509306	3.3007852071554717
1247.6595526308697	3.3500272235649913
1270.8787092020582	3.399054309919597
1294.529978227916	3.447907686535048
1318.6214013947485	3.4976702328020037
1343.1611700460153	3.5483588685223815
1368.1576279674719	3.599990828378493
1393.6192742241421	3.652583667793011
1419.5547660501015	3.706155268898021
1445.9729217920196	3.7607238466151207
1472.8827239075017	3.8163079548487047
1500.2933220192183	3.872926492794488
1528.2140360258693	3.930598711365421
1556.654359271062	3.9893442197372355
1585.6239617711371	4.049079854557376
1615.1326935030913	4.105867522344837
1645.1905877536624	4.16371201829258
1675.8078645307671	4.2226330101524985
1706.994934038408	4.282650531696692
1738.7624002162504	4.3437849895291585
1771.1210643450886	4.406057170024285
1804.0819287193829	4.469488246394406
1837.6562003881704	4.534099785888951
1871.8552949655793	4.599913757127532
1906.690840512252	4.666952537569501
1942.1746814890264	4.735238921122548
1978.3188827841643	4.804796125892849
2015.1357338155585	4.871907746167919
2052.6377527092523	4.9370203352178965
2090.83769055575	5.003344680629389
2129.748535745521	5.070903333394478
2169.3835183851843	5.139719264183029
2209.756114795903	5.209815871153
2250.880052095462	5.281216987906036
2292.7693128656488	5.353946891591172
2335.438139906479	5.428030311159321
2378.9010410788933	5.503492435771365
2423.1727942376006	5.580358923362776
2468.2684522556924	5.65865590936755
2514.2033481427966	5.737883869581183
2560.9931002584594	5.808496787419556
2608.6536176225477	5.880423823674107
2657.201105324507	5.953689434312175
2706.652070033241	6.028318530430795
2757.0233256095826	6.104336486726769
2808.3319988231724	6.181769150124325
2860.595535175742	6.260642848563334
2913.8317048327885	6.340984399951131
2968.058608665602	6.422821121280844
3023.2946844057765	6.506180837919509
3079.5587129142264	6.59109189306898
3136.8698245668766	6.677583157402901
3195.2475057592137	6.757608079554564
3254.711605531848	6.832782810108793
3315.282342319423	6.909356555190067
3376.9803108250912	6.987355350696789
3439.8264890229248	7.0668057170598475
3503.8422452906757	7.147734668259879
3569.0493456752297	7.2301697210122855
3635.4699612933177	7.31413890412323
3703.126675869927	7.399670768019734
3772.0424934169973	7.486794394457103
3842.240846055061	7.575539406407083
3913.745601980384	7.665935978129942
3986.581073580439	7.756739789885293
4060.7720257003652	7.8333619315934495
4136.343684063274	7.911410024396509
4213.321743847289	7.9909106054869845
4291.732378422157	8.071890705919047
4371.602248248502	8.1543778597994
4452.958509942656	8.238400113649154
4535.828825510186	8.323986035939935
4620.241371751313	8.411164726807508
4706.224849841282	8.499965827946097
4793.808495089107	8.590419532686914
4883.02208687788	8.682556596264199
4973.895958790063	8.776408346272326
5066.461008921268	8.86172309223266
5160.7487103859075	8.941338299493134
5256.791122018419	9.02243515930773
5354.620899273607	9.105041245482592
5454.271305329837	9.189184644977091
5555.7762223988775	9.274893967453679
5659.170163246243	9.362198355005509
5764.488282925873	9.45112749206504
5871.766390733255	9.54171161549708
5981.040962380944	9.633981524879621
6092.349152400711	9.72796859297604
6205.7288067765	9.823704776402199
6321.218475812449	9.919677277873292
6438.857427240419	10.003398733883111
6558.685659571435	10.088678260434978
6680.743915695614	10.175544853486793
6805.073696735207	10.26402804861617
6931.7172761554075	10.354157931062854
7060.717714137772	10.445965145958004
7192.118872221193	10.539480908743906
7325.9654282152305	10.634737015787515
7462.302891391108	10.731765855191599
7601.17761795533	10.830600417807034
7742.63682681127	10.931274308450032
7886.728615614156	11.033821757328164
8033.501977124734	11.13051588486803
8183.006815867389	11.224053547175306
8335.293965098195	11.319331961294118
8490.415204088747	11.416383522911866
8648.423275731726	11.515241230605229
8809.37190447399	11.615938697059988
8973.31581458352	11.718510160499749
9140.310748756232	11.822990496327275
9310.413487069076	11.929415228982503
9483.681866285928	12.03782054402125
9660.174799522645	12.148243300418674
9839.952296278227	12.26072104310175
10023.075482838643	12.373905462013655
10209.606623060476	12.479400384554582
10399.609139541202	12.586858585554577
10593.147635183701	12.696316601959838
10790.287915161836	12.807811650675335
10991.097009294961	12.921381641218973
11195.643194838794	13.037065188611258
11403.996019700331	13.154901626504746
11616.226326085018	13.274931020558006
11832.40627458378	13.397194182058314
12052.609368708414	13.521732681797952
12276.910479883603	13.648588864208728
12505.385872903913	13.777805861759491
12738.113231864785	13.90168532147241
12975.171686575868	14.02342696364244
13216.641839466038	14.14743423848832
13462.60579298911	14.273749309819676
13713.147177539457	14.40241512612176
13968.351179887397	14.53347543515848
14228.30457214352	14.666974798847066
14493.095741262152	14.802958608409618
14762.81471909391	14.941473099806597
15037.553212997384	15.082565369457528
15317.404637020798	15.226283390254357
15602.46414366368	15.372676027872693
15892.828656229764	15.519537915665872
16188.596901781992	15.65623530957828
16489.86944471065	15.79547666525126
16796.74872092653	15.937309326246064
17109.339072690134	16.081781517195655
17427.746784089173	16.228942360201625
17752.08011717636	16.378841891536247
18082.44934877952	16.531531078655295
18418.96680799711	16.687061837527605
18761.746914391195	16.845487050287012
19110.90621689136	17.006860583212877
19466.563433422634	17.171237305045175
19828.839491270715	17.338673105640435
20197.857568198782	17.49700273016501
20573.743134329117	17.651994862566863
20956.623994804308	17.80987142492555
21346.630333242454	17.97068609697339
21743.8947560008	18.1344935574316
22148.552337263594	18.301349502601756
22560.74066496859	18.471310665303065
22980.599887588487	18.64443483416215
23408.272761782944	18.82078087326184
23843.904700937204	19.000408742155482
24287.643824604504	19.183379516253993
24739.641008868115	19.369755407592045
25200.049937640895	19.555911390096004
25669.02715491952	19.72798240505812
26146.73211801092	19.90325569088758
26633.327251749808	20.081790842390117
27128.978003724646	20.263648563440945
27633.85290053167	20.4488906876247
28148.123605075813	20.63758019925959
28671.9649749377	20.829781254812637
29205.555121827452	21.025559204713684
29749.075472144435	21.2249806155752
30302.71082866393	21.428113292825547
30866.649433372746	21.63502630376381
31441.083031472648	21.84579000104309
32026.206936576502	22.044298015494654
32622.220097116733	22.23907857598642
33229.325163989684	22.43748403585197
33847.72855945983	22.639581855085535
34477.64054734464	22.845440749123174
35119.275304507275	23.055130712206967
35772.850993678774	23.268723041183776
36438.58983763541	23.48629035974681
37116.71819475767	23.707906643128723
37807.46663599349	23.933647243253688
38511.07002325569	24.16358891435809
39227.76758927724	24.39780983908772
39957.803018952654	24.631173299277496
40701.42453219439	24.84782082341683
41458.88496832911	25.068500194844233
42230.44187206672	25.293286446923826
43016.357581068	25.522256009403364
43816.89931514195	25.755486734401156
44632.33926710398	25.993057922876766
45462.95469532399	26.235050351594058
46309.02801799737	26.481546300586242
47170.84690917022	26.732629581131953
48048.70439655134	26.988385564251914
48942.898961145314	27.248901209736147
49853.73463873893	27.514265095711135
50781.5211232767	27.763621978156156
51726.57387216025	28.00908952208653
52689.21421350677	28.25912525877718
53669.76945540476	28.51381420307272
54668.57299720181	28.773242951958448
55685.96444286409	29.037499714004287
56722.28971644549	29.306674339356697
57777.90117970507	29.580858350288562
58853.15775191451	29.860144972317915
59948.42503189409	30.144629165905517
61064.07542232036	30.434407658742472
62200.48825634718	30.729578978638692
63358.04992658254	31.022849715490707
64537.15401646702	31.29587475693998
65738.20143409586	31.573980840867463
66961.60054853215	31.857262526338246
68207.76732865692	32.14581613217775
69477.1254846024	32.439739769721015
70770.10661181889	32.739133376171814
72087.15033782135	33.04409874858228
73428.70447166757	33.35473957846499
74795.2251562183	33.67116148704924
76187.17702322999	33.99347206119329
77605.0333513357	34.321780889965225
79049.2762269642	34.65619960190431
80520.3967082547	34.96952045974256
82018.89499202212	35.27885768472771
83545.28058382872	35.593951728105374
85100.07247122246	35.91490972524543
86683.79930019774	36.24184080532519
88296.99955494083	36.574856128434504
89940.22174092053	36.91406892337147
91614.0245713852	37.25959452614126
93318.97715733238	37.611550419171834
95055.6592010119	37.97005627125911
96824.66119303113	38.33523397825565
98626.5846131283	38.7072077045166
100462.04213468131	39.075759455765095
102331.6578330245	39.419848950551035
104236.06739764012	39.77034200938383
106175.9183482999	40.127357803679985
108151.87025522892	40.49101772265641
110164.59496336569	40.86144541460385
112214.77682079803	41.238766828928924
114303.11291144787	41.62311025897807
116430.31329208757	42.01460638565877
118597.10123376705	42.413388321872446
120804.21346773289	42.81959165777414
123052.40043592616	43.233354506874896
125342.42654613995	43.65481755300163
127675.07043192645	44.048555856802
130051.12521734099	44.438440540409786
132471.39878661174	44.83558104432068
134936.71405883064	45.2401124005852
137447.90926775365	45.65217215422321
140005.8382468096	46.07190040999087
142611.37071941298	46.49943988001767
145265.39259467812	46.93493593233003
147968.80626863963	47.37853664027817
150722.53093107554	47.830392832882524
153527.5028780421	48.290658146117295
156384.6758302248	48.7594890751483
159295.0212572123	49.22271659887052
162259.5287078087	49.656439811583176
165279.2061464897	50.098234687085075
168355.08029612005	50.54825144039399
171488.19698705408	51.006643082055135
174679.62151272458	51.47356547016562
177930.43899185772	51.94917736336847
181241.75473742394	52.43364047483208
184614.69463245457	52.92711952723422
188050.40551285836	53.429782308770086
191550.05555735278	53.941799730201346
195114.83468466165	54.46334588296827
198745.9549580986	54.99459809838244
202444.65099768018	55.489480761515146
206212.18039991445	55.980975934505786
210049.82416539153	56.48161791629656
213958.88713434216	56.99157693055569
217940.6984302958	57.511026368842806
221996.61191199525	58.04014284956376
226128.00663372796	58.579106278023374
230336.28731421314	59.12809990759442
234622.88481422624	59.68731040202631
238989.25662310526	60.25692789891267
243436.8873543108	60.83714607433977
247967.289250216	61.42816220873928
252582.00269627848	62.01049455787216
257282.5967447932	62.55731228668258
262070.66964838552	63.114306386470545
266947.8494034318	63.681666241231305
271915.7943036019	64.25958475942896
276976.1935036891	64.8482584395865
282130.76759394706	65.44788743709812
287381.2691851069	66.05867563228395
292729.4835042813	66.68083069971131
298177.22900196735	67.31456417880705
303726.35797033116	67.9600915457822
309378.7571730137	68.61763228689712
315136.34848664823	69.28740997308876
321001.08955431683	69.909556917175
326974.9744511768	70.52928562270195
333060.03436245886	71.16054758488924
339258.33827409917	71.80355743960584
345571.9936762143	72.45853381713076
352003.14727966755	73.1256994164894
358553.9857459817	73.80528108117447
365226.7364308176	74.49750987627414
372023.6681413066	75.20262116703748
378947.09190746717	75.9208546989009
385999.3617679763	76.65245467900387
393182.87557057705	77.39766985922282
400500.07578736113	78.12990356385761
407953.4503452449	78.81948195414785
415545.53347188793	79.52189351561734
423278.90655735444	80.23737707576515
431156.19903182285	80.96617590671127
439180.0892596086	81.7085378079107
447353.3054498463	82.46471519040875
455678.6265841069	83.23496516266329
464158.8833612772	84.01954961796393
472796.9591600391	84.81873532347964
481595.7910192351	85.63279401096113
490558.37063650455	86.46200246913361
499687.7453854889	87.30664263780753
508987.01935196744	88.08900038313782
518459.3543892913	88.87064331676176
528107.971193433	89.66683275838156
537936.1503980698	90.47783942098633
547947.2336900292	91.30393905557986
558144.6249454955	92.1454125449388
568531.7913873753	93.00254599911662
579112.2647641759	93.875630852723
589889.6425508494	94.76496396401559
600867.5891719693	95.67084771583477
612049.837247669	96.59359011841661
623440.1888627864	97.53350491412088
635042.5168595962	98.45450096333838
646860.7661546321	99.32439040956235
658898.9550799957	100.21046864639756
671161.1767496273	101.11303694999154
683651.6004510239	102.03240220329303
696374.4730628222	102.96887700039385
709334.1204987989	103.92277975281547
722534.9491787221	104.89443479777204
735981.4475265756	105.88417250844796
749678.1874966876	106.89232940632952
763629.8261282241	107.9192482756245
777841.1071286482	108.96527827981343
792316.8624866261	110.0307750803687
807062.014114949	111.01494867884045
822081.5755240541	112.00116299485475
837380.653526649	113.00573092710019
852964.4499741016	114.02899403949797
868838.2635251193	115.07130025253193
885007.4914473438	116.13300396154494
901477.6314524917	117.21446615723795
918254.2835656282	118.31605454841004
935343.1520292377	119.4381436869837
952750.04724273	120.58111509535648
970480.8877380306	121.74535739612239
988541.7021919574	122.93126644420835
1006938.6314760271	124.09012164040368
1025677.9307444209	125.18791167753642
1044765.9715608052	126.30613177405583
1064209.2440647245	127.4451621368432
1084014.359178331	128.60539004849485
1104188.0508541602	129.78720999900204
1124737.1783647507	130.9910238198819
1145668.7286348727	132.2172408208046
1166989.8186171474	133.46627792876248
1188707.6977119034	134.73855982983056
1210829.7502320395	136.0345191135639
1233363.4979137748	137.35459642008274
1256316.6024741214	138.69924058989508
1279696.8682159416	139.93784427412768
1303512.244681509	141.18273108519327
1327770.8293554292	142.45078545163767
1352480.870417874	143.74243852560866
1377650.769549055	145.05812948306888
1403289.084785873	146.39830567311998
1429404.533431761	147.7634227701069
1456005.9950206485	149.15394492855157
1483102.5143361029	150.57034494097056
1510703.3044866556	152.0131043986298
1538817.7500383463	153.48271385528997
1567455.410205595	154.97967299400148
1596626.022101425	156.43850950470923
1626339.5040481905	157.82460632770957
1656605.9589499151	159.23649864843878
1687435.6777273756	160.6746665254985
1718839.1428171457	162.13959895146317
1750827.0317357269	163.6317940191422
1783410.2207100063	165.1517590909363
1816599.7883753285	166.70001097134798
1850407.019542302	168.27707608269827
1884843.4090337954	169.8834906441178
1919920.6655932867	171.51980085386663
1955650.715865947	173.18656307504645
1992045.7084538713	174.88434402477233
2029118.018046678	176.44403335595464
2066880.2496290822	178.01632686699614
2105345.242766708	179.6178810278134
2144526.0759716653	181.24924038407713
2184436.0711494284	182.91095961554683
2225088.7981283693	184.60360372466548
2266498.079273693	186.32774822866833
2308677.994187172	188.08397935526435
2351642.884494346	189.87289424195913
2395407.3587208795	191.6951011390903
2439986.29725955	193.5512196166362
2485394.8574297987	195.44188077487897
2531648.478631358	197.2794500000329
2578762.8875937983	199.03067602944247
2626754.1037238385	200.81449267324135
2675638.4445520453	202.63150644830813
2725432.531281028	204.4823351589047
2776153.294436804	206.36760810673525
2827817.979625338	208.2879663049149
2880444.1533962977	210.2440626959236
2934049.7092157872	212.23656237361024
2988652.8735503824	214.26614280933433
3044272.212064306	216.3334940823127
3100926.6359319235	218.4393191142529
3158635.408267819	220.58433390835674
3217418.1506763715	222.54974029997558
3277294.849923382	224.5369527029001
3338285.8647317644	226.56114746677935
3400411.9327037027	228.62301283964274
3463694.1773717343	230.7232498779343
3528154.115380883	232.86257268487617
3593813.6638046256	235.04170865327373
3660695.147596906	237.26139871283644
3728821.30718283	239.52239758210064
3798215.306190736	241.8254740250448
3868900.7393279755	244.17141111247415
3940901.6404034477	246.56100648827572
4014242.490499326	248.8773733152564
4088948.226294856	251.09166074066738
4165044.248545185	253.34715643184
4242556.430717777	255.64462728161118
4321511.127789762	257.984854454825
4401935.185208879	260.36863365393623
4483855.948021182	262.7967753895566
4567301.270168747	265.2701052560403
4652299.523960189	267.7894642121908
4738879.609717651	270.35570886719927
4827070.965603188	272.9697117718996
4916903.577628021	275.632361715444
5008407.989848212	278.3445640275042
5101615.314749834	280.82343655794915
5196557.243827658	283.3372817353319
5293266.058360566	285.8979099992118
5391774.640387494	288.5061919907881
5492116.483887789	291.16301455404306
5594325.706169377	293.8692810372741
5698437.059469136	296.6259116002455
5804485.942768984	299.43384352705124
5912508.413831869	302.29403154480065
6022541.201461928	305.20744814823905
6134621.717992506	308.17508393040237
6248788.072006888	311.1979479194327
6365079.081295578	314.12062498318477
6483534.286054714	316.9231813223163
6604193.962330305	319.77789371179136
6727099.135712337	322.6857327845807
6852291.595284058	325.6476872373008
6979813.907830667	328.6647641663805
7109709.432312424	331.7379894104835
7242022.334607315	334.86840789930756
7376797.602527731	338.0570840088677
7514081.061116962	341.30510192339904
7653919.388230155	344.61356600398983
7796360.130405221	347.98360116407457
7941451.71902934	351.4163532519209
8089243.486805938	354.5463353676268
8239785.684528511	357.7298828622596
8393129.498166373	360.9726767174675
8549327.066268368	364.27581951810095
8708431.497690724	367.6404343683043
8870496.889654404	371.06766527337896
9035578.34613892	374.55867752876077
9203731.99661823	378.1146581162323
9375015.015145289	381.73681610750765
9549485.639791965	385.4263830753324
9727203.192450536	389.18461351223027
9908228.099003788	393.0127852570442
10092621.909870485	396.7048359004594
10280447.320933098	400.25631156037605
10471768.194855202	403.87388078662855
10666649.582795387	407.5587735917328
10865157.746525373	411.31224287894645
11067360.180959744	415.13556486827076
11273325.63710487	419.0300395303771
11483124.145435112	422.9969910286134
11696827.039703846	427.0377681692323
11914506.981197748	431.15374486000064
12136237.983442418	435.34632057734257
12362095.43736769	439.61692084217555
12592156.13694151	443.9612071063209
12826498.3052806	447.9246434697316
13065201.621247198	451.96184005826774
13308347.24654076	456.0741695622702
13556017.853293689	460.263030218079
13808297.652180923	464.5298462834521
14065272.421052365	468.8760685218261
14327029.534098294	473.30317469559185
14593657.991557576	477.8126700685505
14865248.449978571	482.406087917717
15141893.25304352	487.084990054654
15423686.462966274	491.85096735650257
15710723.89247449	496.705640306898
16003103.137387017	501.3764866688913
16300923.60979741	505.88389977296765
16604286.571875297	510.47519660187413
16913295.17029647	515.1519382460032
17228054.471313924	519.9157148479048
17548671.49648152	524.7681461429536
17875255.259042356	529.710882010073
18207916.800994623	534.7456030327153
18546769.230846975	539.8740210702769
18891927.762076642	545.0978798401485
19243509.75230332	550.4189555105988
19601634.743191857	555.8390573046885
19966424.501097932	561.338153244478
20338003.0584698	566.3729276654634
20716496.75602067	571.5014000951204
21102034.285685964	576.725314269334
21494746.734379806	582.0464463752095
21894767.628566206	587.4666056549976
