# Frequency (Hz)	Real Part (Ohm)
1000.0	4.1259987070446655
1018.6101701559753	4.1423261369684
1037.566678745186	4.158957423141226
1056.875971184804	4.175898220379641
1076.544612842316	4.19315428873724
1096.5792912678098	4.210731495463197
1116.9868184678226	4.2286358169971905
1137.7741332214914	4.246873341001461
1158.9483034398106	4.265450268430673
1180.5165285688056	4.2843729156403185
1202.4861420374123	4.303647716534336
1224.8646137509306	4.323281224752714
1247.6595526308697	4.343280115899796
1270.8787092020582	4.36451385776872
1294.529978227916	4.386970949658105
1318.6214013947485	4.409845971848758
1343.1611700460153	4.4331467020947
1368.1576279674719	4.456881062895281
1393.6192742241421	4.481057124188902
1419.5547660501015	4.505683106096899
1445.9729217920196	4.530767381718461
1472.8827239075017	4.5563184799775795
1500.2933220192183	4.582345088522974
1528.2140360258693	4.608856056681979
1556.654359271062	4.6358603984694255
1585.6239617711371	4.663425631673117
1615.1326935030913	4.693800058786598
1645.1905877536624	4.724739759157051
1675.8078645307671	4.756255252615972
1706.994934038408	4.788357254770715
1738.7624002162504	4.821056680647904
1771.1210643450886	4.854364648404671
1804.0819287193829	4.88829248310894
1837.6562003881704	4.922851720590079
1871.8552949655793	4.958054111361205
1906.690840512252	4.993911624614476
1942.1746814890264	5.030436452290764
1978.3188827841643	5.067641013225022
2015.1357338155585	5.106894385302103
2052.6377527092523	5.148056236789295
2090.83769055575	5.189984117336599
2129.748535745521	5.232692282875169
2169.3835183851843	5.27619525464146
2209.756114795903	5.320507824114615
2250.880052095462	5.365645058045711
2292.7693128656488	5.411622303580635
2335.438139906479	5.458455193478269
2378.9010410788933	5.506159651425792
2423.1727942376006	5.554751897452919
2468.2684522556924	5.6042484534468695
2514.2033481427966	5.654745482938913
2560.9931002584594	5.7077035996607295
2608.6536176225477	5.761647275945876
2657.201105324507	5.8165948532255305
2706.652070033241	5.872565014268015
2757.0233256095826	5.929576789531159
2808.3319988231724	5.9876495636328455
2860.595535175742	6.0468030819419925
2913.8317048327885	6.107057457292199
2968.058608665602	6.1684331768203124
3023.2946844057765	6.230951108932288
3079.5587129142264	6.294632510398673
3136.8698245668766	6.359499033582113
3195.2475057592137	6.424955056975381
3254.711605531848	6.491144363960108
3315.282342319423	6.558565465210326
3376.9803108250912	6.627241284626918
3439.8264890229248	6.69719517272845
3503.8422452906757	6.768450914590628
3569.0493456752297	6.841032737933446
3635.4699612933177	6.914965321358907
3703.126675869927	6.9902738027419895
3772.0424934169973	7.0669837877777955
3842.240846055061	7.145121358687784
3913.745601980384	7.224713083087979
3986.581073580439	7.305363248137013
4060.7720257003652	7.382251739777261
4136.343684063274	7.460571139329966
4213.321743847289	7.540348076234864
4291.732378422157	7.621609675510081
4371.602248248502	7.704383566974956
4452.958509942656	7.78869789464447
4535.828825510186	7.874581326298494
4620.241371751313	7.962063063229184
4706.224849841282	8.05117285016969
4793.808495089107	8.141940985407723
4883.02208687788	8.234398331087279
4973.895958790063	8.328576323702098
5066.461008921268	8.417996233024612
5160.7487103859075	8.504466552865699
5256.791122018419	8.592546100072466
5354.620899273607	8.68226482264002
5454.271305329837	8.773653225900734
5555.7762223988775	8.866742382896405
5659.170163246243	8.961563944943443
5764.488282925873	9.058150152394632
5871.766390733255	9.156533845601214
5981.040962380944	9.256748476078942
6092.349152400711	9.358828117881973
6205.7288067765	9.462807479188422
6321.218475812449	9.56718530451955
6438.857427240419	9.659547889574414
6558.685659571435	9.753629358053194
6680.743915695614	9.849461698668884
6805.073696735207	9.947077495449879
6931.7172761554075	10.046509938818883
7060.717714137772	10.147792836878
7192.118872221193	10.250960626903899
7325.9654282152305	10.356048387056786
7462.302891391108	10.46309184830743
7601.17761795533	10.57212740658604
7742.63682681127	10.68319213515726
7886.728615614156	10.796323797225524
8033.501977124734	10.901003242013541
8183.006815867389	11.00088963643884
8335.293965098195	11.102634933660669
8490.415204088747	11.206273728176361
8648.423275731726	11.311841258292754
8809.37190447399	11.419373418107554
8973.31581458352	11.528906769713748
9140.310748756232	11.640478555631091
9310.413487069076	11.754126711468958
9483.681866285928	11.869889878824887
9660.174799522645	11.987807418423097
9839.952296278227	12.107919423497602
10023.075482838643	12.228190116349527
10209.606623060476	12.336027953689042
10399.609139541202	12.445872671530683
10593.147635183701	12.557761618262095
10790.287915161836	12.671732837330751
10991.097009294961	12.787825080179157
11195.643194838794	12.906077819420775
11403.996019700331	13.026531262261079
11616.226326085018	13.14922636416851
11832.40627458378	13.274204842799746
12052.609368708414	13.401509192184141
12276.910479883603	13.531182697172191
12505.385872903913	13.663269448152777
12738.113231864785	13.78789577694226
12975.171686575868	13.909149232105761
13216.641839466038	14.032659234701857
13462.60579298911	14.15846777946224
13713.147177539457	14.28661764264768
13968.351179887397	14.417152396592465
14228.30457214352	14.55011642451943
14493.095741262152	14.68555493563074
14762.81471909391	14.823513980479518
15037.553212997384	14.964040466627473
15317.404637020798	15.107182174594065
15602.46414366368	15.25298777410233
15892.828656229764	15.399162495004479
16188.596901781992	15.534649758300155
16489.86944471065	15.672658462619717
16796.74872092653	15.813235532409673
17109.339072690134	15.956428765388447
17427.746784089173	16.10228684879814
17752.08011717636	16.25085937595873
18082.44934877952	16.40219686313026
18418.96680799711	16.556350766689036
18761.746914391195	16.713373500623245
19110.90621689136	16.87331845435433
19466.563433422634	17.036240010889955
19828.839491270715	17.202193565314765
20197.857568198782	17.35954371359809
20573.743134329117	17.51381082332292
20956.623994804308	17.670948870209198
21346.630333242454	17.83101128288602
21743.8947560008	17.994052484298322
22148.552337263594	18.16012791021134
22560.74066496859	18.329294028059323
22980.599887588487	18.501608356145084
23408.272761782944	18.677129483196854
23843.904700937204	18.855917088289008
24287.643824604504	19.0380319611337
24739.641008868115	19.22353602274997
25200.049937640895	19.408913262945365
25669.02715491952	19.580711150298065
26146.73211801092	19.75570622556681
26633.327251749808	19.933957988962774
27128.978003724646	20.115527048006133
27633.85290053167	20.30047513813335
28148.123605075813	20.488865143687878
28671.9649749377	20.680761119301444
29205.555121827452	20.87622831167342
29749.075472144435	21.075333181755372
30302.71082866393	21.27814342734839
30866.649433372746	21.484728006121312
31441.083031472648	21.69515715905678
32026.206936576502	21.89337946263793
32622.220097116733	22.08789425380197
33229.325163989684	22.286028998327378
33847.72855945983	22.487851064162257
34477.64054734464	22.693429072983534
35119.275304507275	22.9028329235293
35772.850993678774	23.116133815365068
36438.58983763541	23.333404273092267
37116.71819475767	23.55471817100769
37807.46663599349	23.780150758221172
38511.07002325569	24.0097786842414
39227.76758927724	24.243680025037452
39957.803018952654	24.47670184914444
40701.42453219439	24.692936363509755
41458.88496832911	24.913195038980977
42230.44187206672	25.13755276588105
43016.357581068	25.366085828254565
43816.89931514195	25.598871929805092
44632.33926710398	25.83599022031542
45462.95469532399	26.07752132255924
46309.02801799737	26.323547359713782
47170.84690917022	26.57415198328259
48048.70439655134	26.829420401537863
48942.898961145314	27.089439408492318
49853.73463873893	27.35429741340998
50781.5211232767	27.603126429445577
51726.57387216025	27.848051163894812
52689.21421350677	28.097533989327527
53669.76945540476	28.351659732592534
54668.57299720181	28.61051479918072
55685.96444286409	28.87418720260385
56722.28971644549	29.14276659432014
57777.90117970507	29.416344294216636
58853.15775191451	29.69501332165909
59948.42503189409	29.978868427119444
61064.07542232036	30.268006124392056
62200.48825634718	30.56252472340945
63358.04992658254	30.855132648706743
64537.15401646702	31.12748969297409
65738.20143409586	31.40491534817843
66961.60054853215	31.687503942031757
68207.76732865692	31.97535155770086
69477.1254846024	32.26855606647653
70770.10661181889	32.56721716105101
72087.15033782135	32.8714363894145
73428.70447166757	33.18131718938255
74795.2251562183	33.49696492376611
76187.17702322999	33.81848691619585
77605.0333513357	34.14599248761361
79049.2762269642	34.47959299344248
80520.3967082547	34.792082843731265
82018.89499202212	35.10057446728466
83545.28058382872	35.414807172444036
85100.07247122246	35.734887801715004
86683.79930019774	36.060925185960336
88296.99955494083	36.39303018140368
89940.22174092053	36.73131570732192
91614.0245713852	37.075896784438754
93318.97715733238	37.426890574033266
95055.6592010119	37.78441641777582
96824.66119303113	38.14859587830559
98626.5846131283	38.51955278056317
100462.04213468131	38.88706925105897
102331.6578330245	39.230105610869444
104236.06739764012	39.57952593570568
106175.9183482999	39.93544903224307
108151.87025522892	40.297995918169505
110164.59496336569	40.667289863332506
112214.77682079803	41.04345643165257
114303.11291144787	41.426623523816055
116430.31329208757	41.81692142076287
118597.10123376705	42.21448282798343
120804.21346773289	42.61944292063977
123052.40043592616	43.031939389526826
125342.42654613995	43.452112487888606
127675.07043192645	43.84453834193014
130051.12521734099	44.23308662370828
132471.39878661174	44.62886585512408
134936.71405883064	45.03201060538073
137447.90926775365	45.442657948037144
140005.8382468096	45.86094750761449
142611.37071941298	46.287021507070094
145265.39259467812	46.72102481615455
147968.80626863963	47.16310500066932
150722.53093107554	47.613412372640504
153527.5028780421	48.07210004142655
156384.6758302248	48.53932396577721
159295.0212572123	49.00091505786033
162259.5287078087	49.432972660972446
165279.2061464897	49.873070929595706
168355.08029612005	50.3213595018833
171488.19698705408	50.777990800780245
174679.62151272458	51.243120085848155
177930.43899185772	51.7169055060557
181241.75473742394	52.19950815355079
184614.69463245457	52.691092118433374
188050.40551285836	53.19182454454849
191550.05555735278	53.70187568631615
195114.83468466165	54.22141896662037
198745.9549580986	54.750631035774504
202444.65099768018	55.243436822960746
206212.18039991445	55.7328168060856
210049.82416539153	56.231304233967286
213958.88713434216	56.739068597702456
217940.6984302958	57.25628254264595
221996.61191199525	57.78312192711176
226128.00663372796	58.31976588216747
230336.28731421314	58.86639687253987
234622.88481422624	59.42320075865564
238989.25662310526	59.990366859835596
243436.8873543108	60.56808801866509
247967.289250216	61.15656066656322
252582.00269627848	61.73630261501325
257282.5967447932	62.280482725685935
262070.66964838552	62.83479012081381
266947.8494034318	63.399413270883585
271915.7943036019	63.9745441538503
276976.1935036891	64.56037832041092
282130.76759394706	65.15711496049441
287381.2691851069	65.76495697098822
292729.4835042813	66.38411102472516
298177.22900196735	67.01478764075503
303726.35797033116	67.65720125592254
309378.7571730137	68.31157029777884
315136.34848664823	68.97811725884894
321001.08955431683	69.59697438122714
326974.9744511768	70.2133522802738
333060.03436245886	70.841201076902
339258.33827409917	71.48073424646769
345571.9936762143	72.13216923713946
352003.14727966755	72.79572754383304
358553.9857459817	73.47163478352273
365226.7364308176	74.16012077195266
372023.6681413066	74.86141960177726
378947.09190746717	75.57576972215516
385999.3617679763	76.30341401982406
393182.87557057705	77.04459990168579
400500.07578736113	77.77272969723387
407953.4503452449	78.45812859047132
415545.53347188793	79.1562828737367
423278.90655735444	79.86742992700864
431156.19903182285	80.59181154794804
439180.0892596086	81.3296740341109
447353.3054498463	82.08126826669296
455678.6265841069	82.84684979583172
464158.8833612772	83.62667892749583
472796.9591600391	84.42102081199299
481595.7910192351	85.23014553412257
490558.37063650455	86.05432820500837
499687.7453854889	86.89384905563907
508987.01935196744	87.6709930898026
518459.3543892913	88.44732545619253
528107.971193433	89.23810550001846
537936.1503980698	90.04360209501598
547947.2336900292	90.86408911870653
558144.6249454955	91.69984554551856
568531.7913873753	92.55115554164269
579112.2647641759	93.4183085616501
589889.6425508494	94.30159944691108
600867.5891719693	95.2013285258441
612049.837247669	96.11780171603014
623440.1888627864	97.05133062822914
635042.5168595962	97.96582230626794
646860.7661546321	98.82908699870111
658898.9550799957	99.70841719395023
671161.1767496273	100.604111873756
683651.6004510239	101.51647558396097
696374.4730628222	102.44581853805687
709334.1204987989	103.39245672266176
722534.9491787221	104.35671200495841
735981.4475265756	105.33891224213218
749678.1874966876	106.3393913928472
763629.8261282241	107.35848963079444
777841.1071286482	108.39655346035552
792316.8624866261	109.4539358344176
807062.014114949	110.42984478644948
822081.5755240541	111.40764077680114
837380.653526649	112.40363371691099
852964.4499741016	113.41816225511042
868838.2635251193	114.45157134203394
885007.4914473438	115.50421234790574
901477.6314524917	116.57644318200994
918254.2835656282	117.66862841438333
935343.1520292377	118.78113939977304
952750.04724273	119.91435440390136
970480.8877380306	121.06865873207967
988541.7021919574	122.24444486021719
1006938.6314760271	123.39298905476653
1025677.9307444209	124.48027671811646
1044765.9715608052	125.58779898988995
1064209.2440647245	126.71593243959252
1084014.359178331	127.86506064475273
1104188.0508541602	129.035574321342
1124737.1783647507	130.2278714566225
1145668.7286348727	131.44235744446718
1166989.8186171474	132.67944522319758
1188707.6977119034	133.939555415988
1210829.7502320395	135.22311647388156
1233363.4979137748	136.53056482146806
1256316.6024741214	137.86234500527345
1279696.8682159416	139.0878461203191
1303512.244681509	140.31938662577795
1327770.8293554292	141.57384630959734
1352480.870417874	142.85165170158643
1377650.769549055	144.1532372693468
1403289.084785873	145.4790455659956
1429404.533431761	146.82952738063926
1456005.9950206485	148.20514189164595
1483102.5143361029	149.60635682277155
1510703.3044866556	151.03364860219062
1538817.7500383463	152.48750252448676
1567455.410205595	153.96841291565875
1596626.022101425	155.410902389741
1626339.5040481905	156.78034853153
1656605.9589499151	158.1752802990373
1687435.6777273756	159.5961719840937
1718839.1428171457	161.04350670518224
1750827.0317357269	162.51777657170302
1783410.2207100063	164.0194828512953
1816599.7883753285	165.54913614027538
1850407.019542302	167.10725653724285
1884843.4090337954	168.69437381992142
1919920.6655932867	170.3110276252883
1955650.715865947	171.95776763305597
1992045.7084538713	173.63515375257123
2029118.018046678	175.174069636783
2066880.2496290822	176.7252031939095
2105345.242766708	178.30520361046896
2144526.0759716653	179.9146081036267
2184436.0711494284	181.55396388825235
2225088.7981283693	183.2238283629758
2266498.079273693	184.92476929971133
2308677.994187172	186.65736503670493
2351642.884494346	188.42220467517512
2395407.3587208795	190.21988827961565
2439986.29725955	192.05102708182122
2485394.8574297987	193.91624368871504
2531648.478631358	195.7278952836537
2578762.8875937983	197.4527219638424
2626754.1037238385	199.20964796203936
2675638.4445520453	200.99927065201402
2725432.531281028	202.82219852476408
2776153.294436804	204.6790513954083
2827817.979625338	206.57046061392944
2880444.1533962977	208.4970692798422
2934049.7092157872	210.45953246085142
2988652.8735503824	212.45851741558403
3044272.212064306	214.49470382046368
3100926.6359319235	216.56878400080697
3158635.408267819	218.68146316622406
3217418.1506763715	220.61393349092756
3277294.849923382	222.56759697083757
3338285.8647317644	224.55761846053645
3400411.9327037027	226.5846745887722
3463694.1773717343	228.64945457647062
3528154.115380883	230.7526604710745
3593813.6638046256	232.89500738525004
3660695.147596906	235.07722374003174
3728821.30718283	237.3000515124926
3798215.306190736	239.56424648802684
3868900.7393279755	241.87057851732186
3940901.6404034477	244.21983177811822
4014242.490499326	246.4951065003721
4088948.226294856	248.66753805697485
4165044.248545185	250.88039893449871
4242556.430717777	253.13444152948455
4321511.127789762	255.43043224070186
4401935.185208879	257.76915172973173
4483855.948021182	260.15139518639904
4567301.270168747	262.5779725991484
4652299.523960189	265.0497090304454
4738879.609717651	267.5674448973096
4827070.965603188	270.13203625706416
4916903.577628021	272.74435509840373
5008407.989848212	275.40528963788296
5101615.314749834	277.83194236890205
5196557.243827658	280.2925960091031
5293266.058360566	282.79904283224346
5391774.640387494	285.35213505724886
5492116.483887789	287.9527407629861
5594325.706169377	290.6017441834153
5698437.059469136	293.3000460082426
5804485.942768984	296.04856368916234
5912508.413831869	298.84823175180003
6022541.201461928	301.7000021134644
6134621.717992506	304.6048444068047
6248788.072006888	307.56374630950035
6365079.081295578	310.42127230552956
6483534.286054714	313.1574666259383
6604193.962330305	315.9445819882303
6727099.135712337	318.7835660416587
6852291.595284058	321.67538407139136
6979813.907830667	324.6210193267178
7109709.432312424	327.6214733553627
7242022.334607315	330.6777663440265
7376797.602527731	333.7909374652555
7514081.061116962	336.9620452307753
7653919.388230155	340.1921678513947
7796360.130405221	343.48240360360774
7941451.71902934	346.8338712030234
8089243.486805938	349.8810599528652
8239785.684528511	352.98027333207386
8393129.498166373	356.1371635996196
8549327.066268368	359.35280413220744
8708431.497690724	362.6282882822679
8870496.889654404	365.9647297497038
9035578.34613892	369.3632629605642
9203731.99661823	372.82504345275976
9375015.015145289	376.35124826895736
9549485.639791965	379.94307635678916
9727203.192450536	383.60174897650666
9908228.099003788	387.328510116222
10092621.909870485	390.91726552123407
10280447.320933098	394.3635262605053
10471768.194855202	397.87392249853633
10666649.582795387	401.44964780787194
10865157.746525373	405.0919179736454
11067360.180959744	408.80197140695833
11273325.63710487	412.5810695659525
11483124.145435112	416.4304973847217
11696827.039703846	420.35156371020133
11914506.981197748	424.34560174719104
12136237.983442418	428.413969511659
12362095.43736769	432.5580502924804
12592156.13694151	436.7734626147863
12826498.3052806	440.60563394975287
13065201.621247198	444.5091226453301
13308347.24654076	448.4852559297343
13556017.853293689	452.53538573112377
13808297.652180923	456.6608891372708
14065272.421052365	460.86316886378535
14327029.534098294	465.14365373105323
14593657.991557576	469.5037991500515
14865248.449978571	473.9450876172018
15141893.25304352	478.4690292184375
15423686.462966274	483.07716214264786
15710723.89247449	487.7710532046791
16003103.137387017	492.2781307005077
16300923.60979741	496.6187319207434
16604286.571875297	501.04011246826695
16913295.17029647	505.54377566010425
17228054.471313924	510.13125279026684
17548671.49648152	514.8041036504088
17875255.259042356	519.5639170601711
18207916.800994623	524.4123114073998
18546769.230846975	529.3509351984137
18891927.762076642	534.3814676185146
19243509.75230332	539.5056191029294
19601634.743191857	544.7251319183736
19966424.501097932	550.0199064071586
20338003.0584698	554.846570459621
20716496.75602067	559.7630595513856
21102034.285685964	564.7710453417184
21494746.734379806	569.8722305997475
21894767.628566206	575.0683497834254
