# Frequency (Hz)	Real Part (Ohm/m)
1000.0	5741374.25899767
1018.6101701559753	5750422.32516665
1037.566678745186	5759638.77738662
1056.875971184804	5769026.7493506335
1076.5446128423157	5778589.433070319
1096.5792912678098	5788330.079961175
1116.9868184678226	5798252.0019481005
1137.7741332214914	5808358.572591476
1158.9483034398106	5818653.2282342175
1180.5165285688054	5829139.469170168
1202.4861420374123	5839820.860834233
1224.8646137509306	5850701.03501467
1247.6595526308697	5861783.69108793
1270.8787092020582	5870301.557015717
1294.529978227916	5876317.662169007
1318.6214013947485	5882445.728062874
1343.1611700460153	5888687.8383057555
1368.1576279674719	5895046.115282387
1393.619274224142	5901522.720875455
1419.5547660501015	5908119.857200643
1445.9729217920194	5914839.767355382
1472.882723907502	5921684.736181536
1500.2933220192183	5928657.091042256
1528.2140360258693	5935759.202613322
1556.654359271062	5942993.485689192
1585.6239617711371	5950245.065502059
1615.132693503091	5953013.122462903
1645.1905877536624	5955832.693434792
1675.807864530767	5958704.737102234
1706.9949340384078	5961630.229991022
1738.7624002162504	5964610.166800262
1771.1210643450886	5967645.560740573
1804.0819287193826	5970737.443878608
1837.6562003881704	5973886.86748794
1871.8552949655793	5977094.902406536
1906.690840512252	5980362.639400835
1942.1746814890264	5983691.189536622
1978.3188827841643	5987081.684556808
2015.1357338155585	5988433.194310068
2052.6377527092523	5987984.336601464
2090.8376905557498	5987527.125574528
2129.748535745521	5987061.405772582
2169.3835183851843	5986587.018845878
2209.756114795903	5986103.803497747
2250.880052095462	5985611.595429766
2292.7693128656488	5985110.227285889
2335.438139906479	5984599.528595543
2378.9010410788933	5984079.325715669
2423.1727942376006	5983549.441771688
2468.2684522556924	5983009.696597345
2514.2033481427966	5982309.751638818
2560.9931002584594	5978717.375663092
2608.6536176225477	5975058.144959196
2657.2011053245064	5971330.81534926
2706.652070033241	5967534.119501055
2757.0233256095826	5963666.766497086
2808.3319988231724	5959727.441395659
2860.5955351757416	5955714.804783795
2913.831704832789	5951627.492321809
2968.0586086656026	5947464.114279427
3023.2946844057765	5943223.255063251
3079.5587129142264	5938903.4727354525
3136.8698245668766	5934503.298523499
3195.2475057592133	5928862.274334965
3254.711605531848	5922206.507393561
3315.282342319423	5915426.875496859
3376.9803108250912	5908521.073496963
3439.8264890229243	5901486.753346786
3503.8422452906757	5894321.523301681
3569.0493456752292	5887022.947106232
3635.4699612933177	5879588.543165889
3703.126675869927	5872015.783703207
3772.0424934169973	5864302.093898375
3842.240846055061	5856444.851013744
3913.745601980384	5848441.383502073
3986.581073580439	5840209.05496066
4060.7720257003657	5830828.759503338
4136.343684063274	5821273.895151442
4213.321743847289	5811541.213148139
4291.732378422157	5801627.404276681
4371.602248248501	5791529.097735233
4452.958509942655	5781242.859990759
4535.828825510186	5770765.193611598
4620.241371751313	5760092.536078281
4706.224849841281	5749221.258572253
4793.808495089106	5738147.664742026
4883.02208687788	5726867.98944638
4973.895958790063	5715378.397474177
5066.461008921268	5703629.499814213
5160.7487103859075	5691629.722991622
5256.791122018419	5679406.628280529
5354.620899273607	5666956.059697029
5454.271305329836	5654273.783913654
5555.7762223988775	5641355.488819983
5659.170163246242	5628196.782056496
5764.488282925873	5614793.189521105
5871.766390733255	5601140.153847931
5981.040962380945	5587233.032857733
6092.349152400711	5573067.097979528
6205.7288067765	5558637.532642822
6321.218475812449	5544027.983202834
6438.8574272404185	5529950.911092026
6558.685659571435	5515611.86227394
6680.743915695614	5501005.961317473
6805.073696735206	5486128.242058927
6931.717276155407	5470973.645913445
7060.717714137772	5455537.020155052
7192.118872221193	5439813.11616466
7325.96542821523	5423796.587645491
7462.302891391108	5407481.988805272
7601.17761795533	5390863.772504609
7742.636826811269	5373936.288370903
7886.728615614156	5356693.780877156
8033.501977124735	5340235.387690928
8183.00681586739	5324176.255669575
8335.293965098195	5307818.2604687475
8490.415204088747	5291155.840193821
8648.423275731726	5274183.329442366
8809.37190447399	5256894.957377856
8973.31581458352	5239284.8457675055
9140.310748756232	5221347.006983617
9310.413487069076	5203075.341967732
9483.681866285926	5184463.6381568685
9660.174799522645	5165505.567371193
9839.952296278227	5146194.683662367
10023.075482838643	5126853.298703219
10209.606623060476	5109475.457924237
10399.609139541202	5091774.212571416
10593.1476351837	5073743.544030608
10790.287915161836	5055377.321680228
10991.097009294961	5036669.300806786
11195.643194838794	5017613.120481605
11403.99601970033	4998202.301398052
11616.22632608502	4978430.243668487
11832.40627458378	4958290.224580241
12052.609368708414	4937775.396309819
12276.910479883603	4916878.78359456
12505.385872903913	4895593.28136099
12738.113231864783	4876072.00448257
12975.171686575868	4857427.241629368
13216.641839466038	4838435.496566949
13462.60579298911	4819090.311897361
13713.147177539455	4799385.110049372
13968.351179887397	4779313.191042036
14228.30457214352	4758867.730206616
14493.09574126215	4738041.775866131
14762.81471909391	4716828.246971707
15037.553212997384	4695219.930694952
15317.404637020798	4673209.479975501
15602.46414366368	4650789.411022952
15892.828656229764	4628553.491381057
16188.596901781993	4609343.233880106
16489.86944471065	4589775.470218329
16796.74872092653	4569843.547145234
17109.339072690134	4549540.687592212
17427.746784089173	4528859.988368255
17752.08011717636	4507794.417812794
18082.44934877952	4486336.813404865
18418.96680799711	4464479.879327766
18761.746914391195	4442216.1839884035
19110.90621689136	4419538.157490473
19466.56343342263	4396438.089060615
19828.83949127071	4372908.124426662
20197.857568198782	4351956.271286096
20573.743134329114	4332165.180451638
20956.623994804308	4312005.774049179
21346.630333242454	4291471.197663324
21743.8947560008	4270554.4693168495
22148.55233726359	4249248.477096741
22560.74066496859	4227545.976736075
22980.599887588487	4205439.589150886
23408.272761782944	4182921.797931201
23843.904700937208	4159984.9467853834
24287.643824604504	4136621.2369369003
24739.64100886812	4112822.724472661
25200.049937640895	4089445.319203407
25669.027154919517	4069743.7698840857
26146.732118010917	4049675.5713795973
26633.327251749808	4029233.9002862168
27128.978003724646	4008411.8062155163
27633.852900531667	3987202.2094311556
28148.123605075813	3965597.8984416956
28671.964974937695	3943591.5275486223
29205.55512182745	3921175.614348714
29749.075472144435	3898342.53718995
30302.71082866393	3875084.532580083
30866.649433372742	3851393.692546932
31441.08303147265	3827261.961949628
32026.206936576502	3806292.1050950284
32622.220097116733	3786588.5390149294
33229.325163989684	3766518.286217407
33847.72855945983	3746074.5226002433
34477.640547344636	3725250.2970635383
35119.275304507275	3704038.529146228
35772.850993678774	3682432.0066186665
36438.58983763541	3660423.383030392
37116.71819475767	3638005.175212236
37807.466635993485	3615169.760731994
38511.070023255685	3591909.3753026943
39227.76758927723	3568216.1101426585
39957.803018952654	3545163.9689679574
40701.42453219439	3526051.1900149616
41458.88496832911	3506582.7189934985
42230.441872066716	3486751.93641365
43016.35758106799	3466552.0995956617
43816.89931514194	3445976.340377369
44632.33926710397	3425017.6627789363
45462.95469532399	3403668.9406241537
46309.02801799736	3381922.9151174566
47170.84690917023	3359772.1923758616
48048.704396551344	3337209.2409149697
48942.89896114532	3314226.38908817
49853.73463873894	3290815.822478204
50781.5211232767	3270901.226661222
51726.57387216024	3252217.154952555
52689.21421350677	3233185.369490185
53669.76945540476	3213799.399261989
54668.57299720181	3194052.652829207
55685.96444286408	3173938.4160852847
56722.28971644549	3153449.8499729983
57777.90117970507	3132579.9881591117
58853.1577519145	3111321.7346657375
59948.42503189408	3089667.861457633
61064.07542232036	3067611.005984589
62200.48825634718	3045143.6686780844
63358.04992658254	3023492.677311253
64537.15401646702	3005730.2257466237
65738.20143409586	2987637.2119359896
66961.60054853215	2969207.484059705
68207.76732865692	2950434.7758117123
69477.1254846024	2931312.704268939
70770.10661181889	2911834.7677210183
72087.15033782135	2891994.343459654
73428.70447166759	2871784.6855268194
74795.22515621828	2851198.9224210586
76187.17702322999	2830230.054761111
77605.0333513357	2808870.9529060335
79049.2762269642	2787114.3545310544
80520.39670825469	2768957.0611446593
82018.8949920221	2751900.271958319
83545.28058382872	2734526.053022908
85100.07247122246	2716828.4969167826
86683.79930019773	2698801.586280178
88296.99955494082	2680439.1917692376
89940.22174092053	2661735.0699719763
91614.0245713852	2642682.8612854527
93318.9771573324	2623276.087753425
95055.65920101192	2603508.150863788
96824.66119303115	2583372.329305002
98626.5846131283	2562861.776680775
100462.04213468132	2543284.3896838953
102331.65783302448	2527323.83963389
104236.06739764012	2511066.2610316696
106175.9183482999	2494506.1261253385
108151.87025522892	2477637.804290592
110164.59496336569	2460455.560116258
112214.77682079801	2442953.551454179
114303.11291144785	2425125.827432825
116430.31329208757	2406966.3264339417
118597.10123376705	2388468.8740315186
120804.21346773289	2369627.1808924368
123052.40043592616	2350434.8406380094
125342.42654613995	2330885.3276657565
127675.07043192645	2314851.6627051216
130051.12521734099	2299739.212657168
132471.39878661174	2284345.5173423495
134936.71405883064	2268665.342738393
137447.90926775365	2252693.357416982
140005.8382468096	2236424.13073101
142611.37071941295	2219852.1309681046
145265.39259467812	2202971.7234697877
147968.80626863963	2185777.168715626
150722.53093107554	2168262.620371733
153527.5028780421	2150422.1233029542
156384.67583022476	2132249.611548057
159295.0212572123	2115067.7445600075
162259.5287078087	2101101.8903734987
165279.2061464897	2086876.1292642031
168355.08029612005	2072385.6243200686
171488.19698705408	2057625.4486132746
174679.62151272455	2042590.5835250472
177930.43899185772	2027275.9170392551
181241.75473742394	2011676.2420042786
184614.69463245454	1995786.2543625275
188050.40551285836	1979600.5513469824
191550.0555573528	1963113.6296442267
195114.83468466165	1946319.883523234
198745.9549580986	1929213.6029293712
202444.65099768018	1915406.9090835399
206212.18039991445	1902328.5727433788
210049.8241653915	1889006.846338571
213958.88713434213	1875437.200338598
217940.6984302958	1861615.0209176082
221996.61191199525	1847535.6083856702
226128.00663372793	1833194.1755908136
230336.2873142131	1818585.846291366
234622.88481422624	1803705.653497961
238989.25662310526	1788548.537784715
243436.8873543108	1773109.3455689754
247967.289250216	1757382.8273590268
252582.00269627848	1742652.7710045874
257282.59674479323	1730684.444777606
262070.66964838552	1718493.3859630572
266947.8494034318	1706075.4494695903
271915.7943036019	1693426.4130649911
276976.1935036891	1680541.975940595
282130.76759394706	1667417.7572489497
287381.2691851069	1654049.2946142876
292729.4835042813	1640432.0426152728
298177.22900196735	1626561.371239497
303726.3579703311	1612432.5643092424
309378.75717301364	1598040.817877914
315136.34848664823	1583381.2385966557
321001.08955431683	1571724.2155924544
326974.97445117676	1560613.1029478551
333060.03436245886	1549295.2106063187
339258.33827409917	1537766.6903624998
345571.9936762143	1526023.622395295
352003.1472796675	1514062.0139350703
358553.9857459817	1501877.7979060588
365226.7364308175	1489466.831543532
372023.6681413066	1476824.894985198
378947.09190746717	1463947.689836411
385999.36176797637	1450830.8377086748
393182.87557057705	1437469.8787309276
400500.07578736113	1425071.3814796698
407953.45034524484	1414980.8426676271
415545.53347188793	1404702.5172113257
423278.90655735444	1394232.910369366
431156.19903182285	1383568.462362609
439180.0892596086	1372705.547163828
447353.3054498463	1361640.4712648077
455678.6265841068	1350369.472420517
464158.8833612772	1338888.7183699089
472796.9591600391	1327194.3055328967
481595.79101923504	1315282.2576831155
490558.37063650455	1303148.5245959435
499687.7453854889	1290788.98067139
508987.0193519675	1281097.1997419312
518459.3543892913	1271792.5106617047
528107.971193433	1262314.6597344482
537936.1503980698	1252660.424388722
547947.2336900292	1242826.5220804848
558144.6249454955	1232809.6091769964
568531.7913873753	1222606.2798199349
579112.2647641759	1212213.0647673814
589889.6425508494	1201626.4302142323
600867.5891719692	1190842.7765906688
612049.837247669	1179858.437338271
623440.1888627863	1168669.6776633314
635042.5168595961	1158382.0620972675
646860.7661546321	1149982.3396023014
658898.9550799957	1141426.29684244
671161.1767496272	1132711.0246709578
683651.6004510238	1123833.5598014067
696374.4730628222	1114790.883800081
709334.1204987989	1105579.9220597045
722534.9491787221	1096197.542754039
735981.4475265755	1086640.5557730289
749678.1874966878	1076905.7116381219
763629.8261282243	1066989.7003974232
777841.1071286482	1056889.1505002668
792316.8624866261	1046600.6276508541
807062.0141149492	1038638.829372233
822081.575524054	1030934.0263896547
837380.6535266489	1023085.8357125529
852964.4499741016	1015091.5888715337
868838.2635251193	1006948.5677365335
885007.4914473438	998654.0035926278
901477.6314524917	990205.0761986347
918254.2835656281	981598.9128282038
935343.1520292377	972832.587293059
952750.0472427299	963903.118948062
970480.8877380306	954807.4716777625
988541.7021919573	945542.5528640844
1006938.6314760271	937101.1946790616
1025677.9307444209	930178.0928536588
1044765.9715608053	923126.1509252769
1064209.2440647245	915942.9711576788
1084014.359178331	908626.1111923446
1104188.0508541602	901173.0832180483
1124737.1783647507	893581.3531249727
1145668.7286348727	885848.3396430861
1166989.8186171474	877971.413464484
1188707.6977119034	869947.8963493922
1210829.7502320393	861775.060215539
1233363.4979137746	853450.1262105776
1256316.6024741214	844970.2637672462
1279696.8682159416	838490.5356335416
1303512.2446815087	832166.2914641001
1327770.829355429	825724.3520345575
1352480.8704178738	819162.5270160964
1377650.769549055	812478.5853175075
1403289.084785873	805670.2543265958
1429404.533431761	798735.2191374651
1456005.9950206485	791671.1217634269
1483102.514336103	784475.5603352595
1510703.3044866556	777146.0882845455
1538817.7500383465	769680.2135118148
1567455.410205595	762075.3975392006
1596626.022101425	755209.0326918698
1626339.5040481905	749547.0797873463
1656605.9589499151	743779.7569758537
1687435.6777273756	737905.1033054955
1718839.1428171454	731921.1213307246
1750827.0317357269	725825.7764331923
1783410.220710006	719616.996129959
1816599.7883753285	713292.6693688198
1850407.019542302	706850.6458105346
1884843.4090337954	700288.7350976809
1919920.6655932867	693604.7061099119
1955650.715865947	686796.2862053547
1992045.7084538713	679861.1604478786
2029118.0180466783	674626.0263152551
2066880.2496290822	669470.4764458201
2105345.242766708	664218.980916067
2144526.0759716653	658869.7541609326
2184436.0711494284	653420.9773856812
2225088.7981283693	647870.7979475012
2266498.079273693	642217.3287255802
2308677.994187172	636458.6474794676
2351642.884494346	630592.7961954916
2395407.358720879	624617.78042101
2439986.29725955	618531.568586281
2485394.857429798	612332.0913137029
2531648.478631358	606784.7753045243
2578762.8875937983	602182.2721685743
2626754.1037238385	597494.1156661198
2675638.4445520453	592718.7117734373
2725432.531281028	587854.4368017486
2776153.2944368036	582899.6368451508
2827817.979625338	577852.627218273
2880444.1533962977	572711.6918834586
2934049.709215787	567475.0828673035
2988652.873550383	562141.0196663172
3044272.2120643063	556707.6886415373
3100926.6359319235	551173.2424018738
3158635.408267819	545535.7991759697
3217418.1506763715	541330.3685193362
3277294.849923382	537150.0835724717
3338285.8647317644	532892.0028114454
3400411.9327037027	528554.6784429193
3463694.1773717343	524136.6357298723
3528154.1153808828	519636.3724901796
3593813.6638046256	515052.3585858495
3660695.147596906	510383.0354027621
3728821.30718283	505626.81532072515
3798215.306190736	500782.08117366116
3868900.7393279755	495847.18569976033
3940901.6404034477	490820.45098138845
4014242.490499326	486362.67075792653
4088948.226294856	482639.1574253946
4165044.248545185	478846.34887616534
4242556.430717777	474982.9555144662
4321511.127789762	471047.6637449266
4401935.1852088785	467039.1355259419
4483855.948021181	462956.0079147278
4567301.270168747	458796.8926038993
4652299.523960189	454560.37544943864
4738879.609717651	450245.0159898647
4827070.965603188	445849.34695646353
4916903.577628021	441371.87377440225
5008407.989848212	436811.074054553
5101615.314749833	433448.0019867105
5196557.243827657	430072.77643748745
5293266.058360566	426634.73736647796
5391774.640387494	423132.7158033552
5492116.483887789	419565.5210230519
5594325.706169377	415931.9401409079
5698437.0594691355	412230.7377002719
5804485.942768984	408460.6552524335
5912508.413831869	404620.4109287394
6022541.201461928	400708.69900474034
6134621.717992506	396724.18945623457
6248788.072006888	392665.5275070432
6365079.081295578	389098.3138294744
6483534.286054714	386097.1811485293
6604193.962330305	383040.1968777305
6727099.135712336	379926.32160948846
6852291.595284057	376754.49659265974
6979813.907830667	373523.64337256254
7109709.432312423	370232.6634242911
7242022.334607315	366880.4377792018
7376797.60252773	363465.8266444564
7514081.061116962	359987.669015477
7653919.388230155	356444.78228119254
7796360.130405221	352835.9618219405
7941451.71902934	349159.98059987865
8089243.486805938	346480.08752018004
8239785.684528512	343763.92048019636
8393129.498166373	340997.2051094262
8549327.066268368	338179.0006948335
8708431.497690724	335308.34901655035
8870496.889654402	332384.27402207616
9035578.34613892	329405.78149440576
9203731.99661823	326371.85871398693
9375015.01514529	323281.4741143847
9549485.639791967	320133.57693153643
9727203.192450536	316927.096846482
9908228.099003786	313660.9436214428
10092621.909870483	310815.8316342371
10280447.320933098	308404.05928823724
10471768.194855202	305947.4034485009
10666649.582795387	303445.02882557246
10865157.746525371	300896.0845851173
11067360.180959744	298299.704058629
11273325.63710487	295655.00444875314
11483124.14543511	292961.0865291262
11696827.039703846	290217.03433862876
11914506.981197748	287421.9148699492
12136237.983442418	284574.7777523511
12362095.437367693	281674.6549285373
12592156.13694151	278731.3196056447
12826498.3052806	276591.0706269153
13065201.621247198	274410.9912505156
13308347.24654076	272190.3402259674
13556017.853293689	269928.36250799545
13808297.652180923	267624.28899980313
14065272.421052363	265277.33629157144
14327029.534098294	262886.7063940915
14593657.991557576	260451.5864674392
14865248.449978571	257971.148544602
15141893.25304352	255444.5492499595
15423686.462966273	252870.92951252768
15710723.892474487	250249.41427386555
16003103.137387017	247986.1796755937
16300923.609797413	246052.5359177566
16604286.571875297	244082.9067205652
16913295.17029647	242076.62238886982
17228054.471313924	240033.0007643803
17548671.49648152	237951.34699372435
17875255.259042352	235830.95329219097
18207916.800994623	233671.09870307433
18546769.230846975	231471.04885254212
18891927.762076646	229230.05569993987
19243509.75230332	226947.35728344903
19601634.743191857	224622.17746101285
19966424.501097932	222279.660477113
20338003.0584698	220565.38127354454
20716496.75602067	218819.19904230282
21102034.285685964	217040.52006261412
21494746.734379806	215228.7395644608
21894767.628566206	213383.24152295152
22302232.979659364	211503.3984488673
