# Frequency (Hz)	Real Part (Ohm/m)
1000.0	6836171.7358747395
1018.6101701559753	6840949.27176892
1037.566678745186	6845815.718419019
1056.875971184804	6850772.73046933
1076.5446128423157	6855821.993357363
1096.5792912678098	6860965.223886904
1116.9868184678226	6866204.170811752
1137.7741332214914	6871540.61543031
1158.9483034398106	6876976.372191246
1180.5165285688054	6882513.289310429
1202.4861420374123	6888153.249399342
1224.8646137509306	6893898.170105181
1247.6595526308697	6899750.004762888
1270.8787092020582	6902580.239366307
1294.529978227916	6902457.769998552
1318.6214013947485	6902333.021455024
1343.1611700460153	6902205.951319875
1368.1576279674719	6902076.516387889
1393.619274224142	6901944.672649794
1419.5547660501015	6901810.375277299
1445.9729217920194	6901673.578607851
1472.882723907502	6901534.236129107
1500.2933220192183	6901392.300463124
1528.2140360258693	6901247.723350246
1556.654359271062	6901100.455632697
1585.6239617711371	6900833.494744111
1615.132693503091	6895958.126144921
1645.1905877536624	6890992.026106528
1675.807864530767	6885933.506101408
1706.9949340384078	6880780.846178254
1738.7624002162504	6875532.294377176
1771.1210643450886	6870186.066134007
1804.0819287193826	6864740.34367354
1837.6562003881704	6859193.275391461
1871.8552949655793	6853542.975224786
1906.690840512252	6847787.522010577
1942.1746814890264	6841924.958832727
1978.3188827841643	6835953.292356587
2015.1357338155585	6828172.3473056685
2052.6377527092523	6818771.871647884
2090.8376905557498	6809196.451538561
2129.748535745521	6799442.831231688
2169.3835183851843	6789507.694391267
2209.756114795903	6779387.662963724
2250.880052095462	6769079.29602933
2292.7693128656488	6758579.088632258
2335.438139906479	6747883.470588851
2378.9010410788933	6736988.805273735
2423.1727942376006	6725891.38838331
2468.2684522556924	6714587.446676264
2514.2033481427966	6702995.490659515
2560.9931002584594	6689698.849540452
2608.6536176225477	6676154.75566766
2657.2011053245064	6662358.603903287
2706.652070033241	6648305.703407083
2757.0233256095826	6633991.276041457
2808.3319988231724	6619410.454746872
2860.5955351757416	6604558.281886983
2913.831704832789	6589429.707562983
2968.0586086656026	6574019.587896597
3023.2946844057765	6558322.683281096
3079.5587129142264	6542333.656599777
3136.8698245668766	6526047.071411291
3195.2475057592133	6509471.246333749
3254.711605531848	6492597.8192007
3315.282342319423	6475410.3747175895
3376.9803108250912	6457903.068968101
3439.8264890229243	6440069.9492796445
3503.8422452906757	6421904.9521993715
3569.0493456752292	6403401.901432552
3635.4699612933177	6384554.505742559
3703.126675869927	6365356.356811777
3772.0424934169973	6345800.9270627145
3842.240846055061	6325881.5674385475
3913.745601980384	6305591.505142377
3986.581073580439	6285037.876995769
4060.7720257003657	6265521.22720726
4136.343684063274	6245641.369245313
4213.321743847289	6225391.543744017
4291.732378422157	6204764.865544514
4371.602248248501	6183754.321353965
4452.958509942655	6162352.767360959
4535.828825510186	6140552.926806543
4620.241371751313	6118347.387510035
4706.224849841281	6095728.599348814
4793.808495089106	6072688.8716911925
4883.02208687788	6049220.370781512
4973.895958790063	6025315.117076599
5066.461008921268	6002664.19801003
5160.7487103859075	5980795.855293781
5256.791122018419	5958520.5389985535
5354.620899273607	5935830.675276793
5454.271305329836	5912718.549330354
5555.7762223988775	5889176.302787387
5659.170163246242	5865195.931030401
5764.488282925873	5840769.280474613
5871.766390733255	5815888.045795642
5981.040962380945	5790543.767105603
6092.349152400711	5764727.827076664
6205.7288067765	5738431.44801105
6321.218475812449	5712051.564572685
6438.8574272404185	5688867.50223806
6558.685659571435	5665251.980558481
6680.743915695614	5641196.970002124
6805.073696735206	5616694.29160621
6931.717276155407	5591735.614196069
7060.717714137772	5566312.451552458
7192.118872221193	5540416.159526145
7325.96542821523	5514037.933098816
7462.302891391108	5487168.803389261
7601.17761795533	5459799.634603866
7742.636826811269	5431921.120930349
7886.728615614156	5403523.783373672
8033.501977124735	5377695.866535666
8183.00681586739	5353365.3304727115
8335.293965098195	5328581.998993636
8490.415204088747	5303337.445498706
8648.423275731726	5277623.086567721
8809.37190447399	5251430.179041581
8973.31581458352	5224749.817049499
9140.310748756232	5197572.92898092
9310.413487069076	5169890.274401076
9483.681866285926	5141692.440909131
9660.174799522645	5112969.840937873
9839.952296278227	5083712.708493828
10023.075482838643	5054635.6562534
10209.606623060476	5030136.4295472745
10399.609139541202	5005181.268063461
10593.1476351837	4979761.6867781645
10790.287915161836	4953869.042759854
10991.097009294961	4927494.532230576
11195.643194838794	4900629.187572563
11403.99601970033	4873263.87427917
11616.22632608502	4845389.287849015
11832.40627458378	4816995.950622367
12052.609368708414	4788074.208558635
12276.910479883603	4758614.227953887
12505.385872903913	4728605.992097295
12738.113231864783	4702105.121402822
12975.171686575868	4677444.407618356
13216.641839466038	4652324.753754194
13462.60579298911	4626737.618857358
13713.147177539455	4600674.303026291
13968.351179887397	4574125.9444527775
14228.30457214352	4547083.51640885
14493.09574126215	4519537.824177595
14762.81471909391	4491479.501926849
15037.553212997384	4462899.009524727
15317.404637020798	4433786.629295861
15602.46414366368	4404132.462717291
15892.828656229764	4374932.099385073
16188.596901781993	4350939.95890864
16489.86944471065	4326501.320615537
16796.74872092653	4301607.87510542
17109.339072690134	4276251.15833859
17427.746784089173	4250422.548758133
17752.08011717636	4224113.264358488
18082.44934877952	4197314.359699487
18418.96680799711	4170016.7228647885
18761.746914391195	4142211.07236374
19110.90621689136	4113887.9539755695
19466.56343342263	4085037.737534844
19828.83949127071	4055650.613657123
20197.857568198782	4030299.7460167105
20573.743134329114	4006833.5227703378
20956.623994804308	3982930.589116432
21346.630333242454	3958582.8177999975
21743.8947560008	3933781.9303164473
22148.55233726359	3908519.49409681
22560.74066496859	3882786.9196405704
22980.599887588487	3856575.457595149
23408.272761782944	3829876.1957810223
23843.904700937208	3802680.0561614987
24287.643824604504	3774977.79175607
24739.64100886812	3746759.983496351
25200.049937640895	3719227.8006741423
25669.027154919517	3696944.0443014917
26146.732118010917	3674245.5834310353
26633.327251749808	3651124.7003415
27128.978003724646	3627573.533683512
27633.852900531667	3603584.0758066475
28148.123605075813	3579148.1700367425
28671.964974937695	3554257.507902547
29205.55512182745	3528903.6263107383
29749.075472144435	3503077.904668389
30302.71082866393	3476771.5619518813
30866.649433372742	3449975.6537212315
31441.08303147265	3422681.0690789283
32026.206936576502	3399594.9781203787
32622.220097116733	3378242.9373817015
33229.325163989684	3356493.5315317046
33847.72855945983	3334339.365538043
34477.640547344636	3311772.9067455786
35119.275304507275	3288786.482315168
35772.850993678774	3265372.2766148276
36438.58983763541	3241522.328562342
37116.71819475767	3217228.528918383
37807.466635993485	3192482.617529318
38511.070023255685	3167276.180518638
39227.76758927723	3141600.64742616
39957.803018952654	3116775.712443969
40701.42453219439	3096851.741894115
41458.88496832911	3076556.9828621484
42230.441872066716	3055884.534911322
43016.35758106799	3034827.369186588
43816.89931514194	3013378.3260247163
44632.33926710397	2991530.1125199194
45462.95469532399	2969275.300044194
46309.02801799736	2946606.3217215063
47170.84690917023	2923515.469854968
48048.704396551344	2899994.8933061506
48942.89896114532	2876036.5948255924
49853.73463873894	2851632.4283336634
50781.5211232767	2831342.798931483
51726.57387216024	2812536.1518431106
52689.21421350677	2793379.5098523614
53669.76945540476	2773866.3594945483
54668.57299720181	2753990.0660882965
55685.96444286408	2733743.871479684
56722.28971644549	2713120.8917443925
57777.90117970507	2692114.114847106
58853.1577519145	2670716.3982573324
59948.42503189408	2648920.466520874
61064.07542232036	2626718.9087860915
62200.48825634718	2604104.1762841353
63358.04992658254	2582434.616856809
64537.15401646702	2565110.6388209937
65738.20143409586	2547464.258606153
66961.60054853215	2529489.476252878
68207.76732865692	2511180.1801414904
69477.1254846024	2492530.1449140348
70770.10661181889	2473533.029357582
72087.15033782135	2454182.3742481503
73428.70447166759	2434471.6001545023
74795.22515621828	2414394.005201064
76187.17702322999	2393942.7627892215
77605.0333513357	2373110.9192761932
79049.2762269642	2351891.391610725
80520.39670825469	2334519.1707833484
82018.8949920221	2318347.5628734864
83545.28058382872	2301874.9985887273
85100.07247122246	2285095.8770797243
86683.79930019773	2268004.493264371
88296.99955494082	2250595.0358880125
89940.22174092053	2232861.585547555
91614.0245713852	2214798.112678811
93318.9771573324	2196398.475506372
95055.65920101192	2177656.4179553455
96824.66119303115	2158565.567524221
98626.5846131283	2139119.433118149
100462.04213468132	2120651.508409224
102331.65783302448	2105897.4748632633
104236.06739764012	2090868.866242525
106175.9183482999	2075560.572658147
108151.87025522892	2059967.3891253648
110164.59496336569	2044084.0137937658
112214.77682079801	2027905.0461445944
114303.11291144785	2011424.9851545242
116430.31329208757	1994638.2274252477
118597.10123376705	1977539.0652782603
120804.21346773289	1960121.6848141947
123052.40043592616	1942380.1639360215
125342.42654613995	1924308.4703354798
127675.07043192645	1909720.8546032559
130051.12521734099	1896062.7321927182
132471.39878661174	1882150.429800111
134936.71405883064	1867979.2170927161
137447.90926775365	1853544.2757055198
140005.8382468096	1838840.6976029165
142611.37071941295	1823863.4834099202
145265.39259467812	1808607.5407123314
147968.80626863963	1793067.6823252507
150722.53093107554	1777238.6245293869
153527.5028780421	1761114.9852745328
156384.67583022476	1744691.282349611
159295.0212572123	1729231.160959214
162259.5287078087	1716860.4872088002
165279.2061464897	1704259.5931149456
168355.08029612005	1691424.1942378897
171488.19698705408	1678349.9264037092
174679.62151272455	1665032.344220471
177930.43899185772	1651466.9195667368
181241.75473742394	1637649.040051957
184614.69463245454	1623574.0074482155
188050.40551285836	1609237.0360927642
191550.0555573528	1594633.2512608683
195114.83468466165	1579757.6875083295
198745.9549580986	1564605.286983188
202444.65099768018	1552534.4289916835
206212.18039991445	1541154.9481768832
210049.8241653915	1529563.6932878338
213958.88713434213	1517756.7231729778
217940.6984302958	1505730.0233352566
221996.61191199525	1493479.504567143
226128.00663372793	1481001.0015602536
230336.2873142131	1468290.2714891152
234622.88481422624	1455342.9925685462
238989.25662310526	1442154.762584207
243436.8873543108	1428721.0973958063
247967.289250216	1415037.429412428
252582.00269627848	1402269.3182166012
257282.59674479323	1392019.3909340987
262070.66964838552	1381578.7107607815
266947.8494034318	1370943.727752897
271915.7943036019	1360110.8259016275
276976.1935036891	1349076.3219036239
282130.76759394706	1337836.463908631
287381.2691851069	1326387.4302438209
292729.4835042813	1314725.3281143894
298177.22900196735	1302846.1922799507
303726.3579703311	1290745.9837063283
309378.75717301364	1278420.588192228
315136.34848664823	1265865.814970369
321001.08955431683	1255988.5769797326
326974.97445117676	1246605.5494973205
333060.03436245886	1237047.9022768834
339258.33827409917	1227312.385615383
345571.9936762143	1217395.689332255
352003.1472796675	1207294.4416439151
358553.9857459817	1197005.2080173052
365226.7364308175	1186524.4900021306
372023.6681413066	1175848.7240413367
378947.09190746717	1164974.2802594658
385999.36176797637	1153897.4612284652
393182.87557057705	1142614.5007105083
400500.07578736113	1132178.1612002908
407953.45034524484	1123762.4113517818
415545.53347188793	1115190.0429666007
423278.90655735444	1106458.1413471338
431156.19903182285	1097563.7375527413
439180.0892596086	1088503.8073903003
447353.3054498463	1079275.2703859352
455678.6265841068	1069874.988737627
464158.8833612772	1060299.7662483316
472796.9591600391	1050546.3472392273
481595.79101923504	1040611.4154427618
490558.37063650455	1030491.5928750762
499687.7453854889	1020183.4386874565
508987.0193519675	1012170.3545507531
518459.3543892913	1004495.1444727816
528107.971193433	996677.0974292771
537936.1503980698	988713.5552000054
547947.2336900292	980601.8100948018
558144.6249454955	972339.1040329302
568531.7913873753	963922.6276052967
579112.2647641759	955349.519119232
589889.6425508494	946616.863625476
600867.5891719692	937721.6919270667
612049.837247669	928660.9795697854
623440.1888627863	919431.6458137988
635042.5168595961	910968.9325208035
646860.7661546321	904107.5807143659
658898.9550799957	897118.5379833097
671161.1767496272	889999.4279778028
683651.6004510238	882747.8301237326
696374.4730628222	875361.2787996962
709334.1204987989	867837.2624986538
722534.9491787221	860173.2229739918
735981.4475265755	852366.5543696954
749678.1874966878	844414.6023343198
763629.8261282243	836314.6631184948
777841.1071286482	828063.9826556103
792316.8624866261	819659.7556254079
807062.0141149492	813202.1218795751
822081.575524054	806962.6727474789
837380.6535266489	800607.1064053556
852964.4499741016	794133.2618921676
868838.2635251193	787538.9380310252
885007.4914473438	780821.8926807642
901477.6314524917	773979.8419735893
918254.2835656281	767010.4595385381
935343.1520292377	759911.3757104885
952750.0472427299	752680.1767244466
970480.8877380306	745314.4038948437
988541.7021919573	737811.5527795514
1006938.6314760271	730991.4998524426
1025677.9307444209	725427.9378209693
1044765.9715608053	719760.836953416
1064209.2440647245	713988.2703744272
1084014.359178331	708108.2753491666
1104188.0508541602	702118.8526159697
1124737.1783647507	696017.9657065719
1145668.7286348727	689803.5402536873
1166989.8186171474	683473.4632857034
1188707.6977119034	677025.582508245
1210829.7502320393	670457.7055723728
1233363.4979137746	663767.5993291603
1256316.6024741214	656952.9890703993
1279696.8682159416	651775.7859532292
1303512.2446815087	646727.9374586705
1327770.829355429	641586.1476447065
1352480.8704178738	636348.6682473985
1377650.769549055	631013.7184673173
1403289.084785873	625579.484364056
1429404.533431761	620044.1182394658
1456005.9950206485	614405.738009421
1483102.514336103	608662.426563891
1510703.3044866556	602812.2311151004
1538817.7500383465	596853.1625335627
1567455.410205595	590783.1946717517
1596626.022101425	585313.3740248373
1626339.5040481905	580821.3347357878
1656605.9589499151	576245.6978312212
1687435.6777273756	571584.9075452894
1718839.1428171454	566837.3791590749
1750827.0317357269	562001.4984617721
1783410.220710006	557075.6212018396
1816599.7883753285	552058.0725279312
1850407.019542302	546947.1464194361
1884843.4090337954	541741.1051064072
1919920.6655932867	536438.1784787033
1955650.715865947	531036.5634841343
1992045.7084538713	525534.423515398
2029118.0180466783	521400.5895258176
2066880.2496290822	517332.15468384733
2105345.242766708	513188.00557719916
2144526.0759716653	508966.73315052537
2184436.0711494284	504666.90212571557
2225088.7981283693	500287.0505138925
2266498.079273693	495825.6891183155
2308677.994187172	491281.3010280391
2351642.884494346	486652.3411021489
2395407.358720879	481937.23544439155
2439986.29725955	477134.38086804043
2485394.857429798	472242.14435078914
2531648.478631358	467871.7737956902
2578762.8875937983	464256.9850389531
2626754.1037238385	460574.92444837437
2675638.4445520453	456824.34008368076
2725432.531281028	453003.9567057759
2776153.2944368036	449112.4753431467
2827817.979625338	445148.57285020105
2880444.1533962977	441110.9014573791
2934049.709215787	436998.08831290324
2988652.873550383	432808.735015989
3044272.2120643063	428541.4171413752
3100926.6359319235	424194.6837550062
3158635.408267819	419767.0569206932
3217418.1506763715	416476.8559439722
3277294.849923382	413207.49761221046
3338285.8647317644	409877.29596559337
3400411.9327037027	406485.11869967985
3463694.1773717343	403029.81243764766
3528154.1153808828	399510.2023381384
3593813.6638046256	395925.09169579454
3660695.147596906	392273.2615343683
3728821.30718283	388553.4701922581
3798215.306190736	384764.45290032553
3868900.7393279755	380904.9213518667
3940901.6404034477	376973.56326456857
4014242.490499326	373492.01487829344
4088948.226294856	370590.7848023565
4165044.248545185	367635.56234104413
4242556.430717777	364625.3426868783
4321511.127789762	361559.1023327416
4401935.1852088785	358435.79872387485
4483855.948021181	355254.36990339914
4567301.270168747	352013.73415123444
4652299.523960189	348712.7896163089
4738879.609717651	345350.4139419128
4827070.965603188	341925.46388408757
4916903.577628021	338436.7749229113
5008407.989848212	334883.16086654546
5101615.314749833	332271.0359818253
5196557.243827657	329649.92016968806
5293266.058360566	326980.02494628803
5391774.640387494	324260.4425184825
5492116.483887789	321490.24819894176
5594325.706169377	318668.50009174953
5698437.0594691355	315794.23877214507
5804485.942768984	312866.4869603098
5912508.413831869	309884.2491890825
6022541.201461928	306846.5114654863
6134621.717992506	303752.2409259652
6248788.072006888	300600.3854851949
6365079.081295578	297833.4029621965
6483534.286054714	295509.6839717201
6604193.962330305	293142.72017543577
6727099.135712336	290731.70678014983
6852291.595284057	288275.82401532924
6979813.907830667	285774.23685437196
7109709.432312423	283226.09473068983
7242022.334607315	280630.5312485038
7376797.60252773	277986.6638882639
7514081.061116962	275293.5937065801
7653919.388230155	272550.40503057296
7796360.130405221	269756.1651465359
7941451.71902934	266909.9239827997
8089243.486805938	264840.2909247365
8239785.684528512	262742.7397515574
8393129.498166373	260606.15279413442
8549327.066268368	258429.80358988116
8708431.497690724	256212.9521566175
8870496.889654402	253954.84474097058
9035578.34613892	251654.7135620879
9203731.99661823	249311.77655058494
9375015.01514529	246925.23708263342
9549485.639791967	244494.2837090994
9727203.192450536	242018.08987964265
9908228.099003786	239495.81366168056
10092621.909870483	237300.8306901287
10280447.320933098	235442.69816769974
10471768.194855202	233549.98548285605
10666649.582795387	231622.04909289104
10865157.746525371	229658.2334786589
11067360.180959744	227657.8709216907
11273325.63710487	225620.2812771639
11483124.14543511	223544.77174264443
11696827.039703846	221430.63662252715
11914506.981197748	219277.1570880918
12136237.983442418	217083.60093309297
12362095.437367693	214849.22232480312
12592156.13694151	212581.59338885036
12826498.3052806	210936.08026004155
13065201.621247198	209259.9438519117
13308347.24654076	207552.61426002174
13556017.853293689	205813.51097391456
13808297.652180923	204042.0426797341
14065272.421052363	202237.60705917305
14327029.534098294	200399.59058467782
14593657.991557576	198527.36831084255
14865248.449978571	196620.30366192164
15141893.25304352	194677.74821538583
15423686.462966273	192699.04148145262
15710723.892474487	190683.5106785121
16003103.137387017	188944.8635981931
16300923.609797413	187460.94523248292
16604286.571875297	185949.41089348926
16913295.17029647	184409.74664325037
17228054.471313924	182841.42897933148
17548671.49648152	181243.92465682823
17875255.259042352	179616.69050705846
18207916.800994623	177959.1732528779
18546769.230846975	176270.80932056054
18891927.762076646	174551.02464817752
19243509.75230332	172799.23449040967
19601634.743191857	171014.84321972835
19966424.501097932	169217.2274145033
20338003.0584698	167903.81759827342
20716496.75602067	166565.965001879
21102034.285685964	165203.2147410219
21494746.734379806	163815.1034659303
21894767.628566206	162401.15920381382
22302232.979659364	160960.90119838828
