Frequency [GHz]	Zx imag [Ohm/m]	Zy imag [Ohm/m]
1.000000000000000166e-10	1.184020692165255547e+07	2.890108103232410550e+07
1.032794731918951654e-10	1.184011440660047345e+07	2.890095259720401838e+07
1.066664958279539403e-10	1.184001885754206218e+07	2.890081995008859783e+07
1.101645949633656381e-10	1.183992017497789301e+07	2.890068295284658670e+07
1.137774133221491146e-10	1.183981825614548847e+07	2.890054146281675249e+07
1.175087130904807540e-10	1.183971299491229840e+07	2.890039533265932277e+07
1.213623798344240958e-10	1.183960428166518174e+07	2.890024441020255163e+07
1.253424265461399975e-10	1.183949200319627114e+07	2.890008853828426823e+07
1.294529978227915867e-10	1.183937604258507304e+07	2.889992755458821356e+07
1.336983741824946476e-10	1.183925627907671593e+07	2.889976129147500172e+07
1.380829765218092491e-10	1.183913258795621060e+07	2.889958957580756396e+07
1.426113707194128486e-10	1.183900484041856602e+07	2.889941222877084836e+07
1.472882723907502473e-10	1.183887290343467146e+07	2.889922906568561122e+07
1.521185517986104510e-10	1.183873663961276039e+07	2.889903989581608772e+07
1.571072389247450498e-10	1.183859590705533884e+07	2.889884452217140794e+07
1.622595287078087593e-10	1.183845055921142548e+07	2.889864274130043015e+07
1.675807864530767868e-10	1.183830044472393394e+07	2.889843434307987988e+07
1.730765534195724819e-10	1.183814540727207065e+07	2.889821911049555987e+07
1.787525525904235329e-10	1.183798528540853597e+07	2.889799681941632926e+07
1.846146946324547531e-10	1.183781991239140928e+07	2.889776723836075142e+07
1.906690840512252406e-10	1.183764911601052247e+07	2.889753012825600058e+07
1.969220255479172543e-10	1.183747271840810962e+07	2.889728524218893051e+07
2.033800305846981002e-10	1.183729053589361347e+07	2.889703232514894009e+07
2.100498241653915480e-10	1.183710237875239737e+07	2.889677111376242340e+07
2.169383518385184289e-10	1.183690805104817450e+07	2.889650133601851389e+07
2.240527869300018610e-10	1.183670735041898862e+07	2.889622271098581329e+07
2.314005380130653023e-10	1.183650006786647066e+07	2.889593494851985946e+07
2.389892566231049743e-10	1.183628598753821291e+07	2.889563774896097928e+07
2.468268452255692806e-10	1.183606488650298119e+07	2.889533080282223970e+07
2.549214654451423314e-10	1.183583653451856971e+07	2.889501379046716541e+07
2.632815465648021228e-10	1.183560069379204698e+07	2.889468638177689165e+07
2.719157943036017723e-10	1.183535711873212270e+07	2.889434823580639437e+07
2.808331998823172083e-10	1.183510555569340847e+07	2.889399900042944402e+07
2.900430493863991314e-10	1.183484574271227606e+07	2.889363831197192892e+07
2.995549334359813486e-10	1.183457740923407860e+07	2.889326579483314231e+07
3.093787571730138678e-10	1.183430027583139949e+07	2.889288106109466031e+07
3.195247505759212065e-10	1.183401405391307361e+07	2.889248371011635661e+07
3.300034791125284578e-10	1.183371844542366825e+07	2.889207332811924815e+07
3.408258547423451742e-10	1.183341314253309928e+07	2.889164948775455356e+07
3.520031472796679687e-10	1.183309782731607743e+07	2.889121174765872955e+07
3.635469961293320139e-10	1.183277217142104544e+07	2.889075965199380368e+07
3.754694224073336536e-10	1.183243583572823927e+07	2.889029272997275740e+07
3.877828414589456106e-10	1.183208846999654919e+07	2.888981049536919594e+07
4.005000757873611052e-10	1.183172971249881200e+07	2.888931244601108506e+07
4.136343684063274911e-10	1.183135918964511529e+07	2.888879806325779855e+07
4.271993966306778827e-10	1.183097651559375972e+07	2.888826681146001071e+07
4.412092863191189219e-10	1.183058129184947722e+07	2.888771813740193471e+07
4.556786265841064474e-10	1.183017310684845410e+07	2.888715146972521394e+07
4.706224849841281415e-10	1.182975153552974761e+07	2.888656621833395213e+07
4.860564232142136024e-10	1.182931613889265992e+07	2.888596177378020063e+07
5.019965133110081441e-10	1.182886646353957988e+07	2.888533750662935525e+07
5.184593543892912175e-10	1.182840204120384715e+07	2.888469276680464670e+07
5.354620899273606527e-10	1.182792238826211542e+07	2.888402688291023299e+07
5.530224256192902378e-10	1.182742700523074530e+07	2.888333916153201088e+07
5.711586478126431938e-10	1.182691537624566443e+07	2.888262888651555777e+07
5.898896425508497150e-10	1.182638696852517501e+07	2.888189531822035089e+07
6.092349152400710261e-10	1.182584123181515001e+07	2.888113769274955615e+07
6.292146109610343618e-10	1.182527759781602025e+07	2.888035522115455195e+07
6.498495354469890483e-10	1.182469547959098965e+07	2.887954708861335367e+07
6.711611767496282870e-10	1.182409427095482312e+07	2.887871245358211547e+07
6.931717276155404727e-10	1.182347334584260732e+07	2.887785044691877812e+07
7.159041085964887260e-10	1.182283205765779316e+07	2.887696017097800225e+07
7.393819919175865964e-10	1.182216973859887570e+07	2.887604069867641479e+07
7.636298261282244400e-10	1.182148569896397553e+07	2.887509107252718881e+07
7.886728615614152294e-10	1.182077922643262893e+07	2.887411030364298075e+07
8.145371766280743462e-10	1.182004958532400616e+07	2.887309737070613727e+07
8.412497049736117954e-10	1.181929601583083160e+07	2.887205121890517324e+07
8.688382635251186617e-10	1.181851773322814517e+07	2.887097075883635879e+07
8.973315814583522479e-10	1.181771392705614492e+07	2.886985486536923051e+07
9.267593301146878953e-10	1.181688376027622074e+07	2.886870237647500262e+07
9.571521538991863169e-10	1.181602636839929968e+07	2.886751209201644734e+07
9.885417021919573871e-10	1.181514085858562589e+07	2.886628277249817178e+07
1.020960662306046580e-09	1.181435423430370912e+07	2.886506406785698980e+07
1.054442793526168950e-09	1.181361403772174381e+07	2.886383415046931058e+07
1.089022962263730067e-09	1.181284956659130566e+07	2.886256389827061445e+07
1.124737178364752061e-09	1.181206002483508550e+07	2.886125198849159479e+07
1.161622632608501755e-09	1.181124459026863053e+07	2.885989705498307198e+07
1.199717735435884489e-09	1.181040241374417022e+07	2.885849768679336458e+07
1.239062156947916503e-09	1.180953261826636270e+07	2.885705242669902742e+07
1.279696868215940940e-09	1.180863429807903618e+07	2.885555976968733966e+07
1.321664183946605026e-09	1.180770651772199012e+07	2.885401816138910502e+07
1.365007806546013663e-09	1.180674831105685420e+07	2.885242599646000564e+07
1.409772871628966933e-09	1.180575868026101030e+07	2.885078161690888926e+07
1.456005995020649598e-09	1.180473659478852153e+07	2.884908331037122011e+07
1.503755321299737753e-09	1.180368099029696174e+07	2.884732930832592770e+07
1.553070573933460069e-09	1.180259076753908955e+07	2.884551778425377607e+07
1.604003107056820079e-09	1.180146479121814109e+07	2.884364685173531622e+07
1.656605958949914401e-09	1.180030188880559988e+07	2.884171456248647347e+07
1.710933907269014249e-09	1.179910084932019189e+07	2.883971890432972461e+07
1.767043526088946692e-09	1.179786042206683382e+07	2.883765779909872636e+07
1.824993244816152494e-09	1.179657931533423997e+07	2.883552910047421604e+07
1.884843409033795523e-09	1.179525619504978880e+07	2.883333059174897894e+07
1.946656343342262358e-09	1.179388968339031376e+07	2.883105998351948336e+07
2.010496416260498236e-09	1.179247835734730214e+07	2.882871491130180284e+07
2.076430107255774870e-09	1.179102074724505842e+07	2.882629293306941167e+07
2.144526075971667793e-09	1.178951533521027118e+07	2.882379152671017870e+07
2.214855233726359314e-09	1.178796055359137431e+07	2.882120808739997074e+07
2.287490817355702788e-09	1.178635478332609311e+07	2.881853992489016056e+07
2.362508465477946229e-09	1.178469635225543939e+07	2.881578426070611924e+07
2.439986297259550245e-09	1.178298353338241763e+07	2.881293822525390983e+07
2.520004993764092080e-09	1.178121454307362996e+07	2.880999885483200848e+07
2.602647881969005809e-09	1.177938753920189664e+07	2.880696308854511380e+07
2.688001021537606561e-09	1.177750061922797561e+07	2.880382776511666924e+07
2.776153294436799262e-09	1.177555181821935624e+07	2.880058961959691346e+07
2.867196497493770032e-09	1.177353910680409707e+07	2.879724527996291593e+07
2.961225437988034610e-09	1.177146038905754499e+07	2.879379126360718161e+07
3.058338032378433485e-09	1.176931350031975843e+07	2.879022397371101752e+07
3.158635408267817403e-09	1.176709620494135469e+07	2.878653969549902529e+07
3.262222009711669644e-09	1.176480619395543449e+07	2.878273459237075970e+07
3.369205705980266915e-09	1.176244108267313801e+07	2.877880470190547779e+07
3.479697903887691433e-09	1.175999840820037946e+07	2.877474593173591793e+07
3.593813663804627762e-09	1.175747562687312067e+07	2.877055405528672785e+07
3.711671819475765297e-09	1.175487011160854623e+07	2.876622470737314597e+07
3.833395101766601886e-09	1.175217914916936122e+07	2.876175337965535745e+07
3.959110266468459240e-09	1.174939993733837642e+07	2.875713541594373807e+07
4.088948226294862618e-09	1.174652958200044744e+07	2.875236600735018775e+07
4.223044187206674123e-09	1.174356509412870184e+07	2.874744018728039786e+07
4.361537789208003199e-09	1.174050338667192310e+07	2.874235282626194134e+07
4.504573251759458750e-09	1.173734127133988775e+07	2.873709862660270557e+07
4.652299523960189308e-09	1.173407545528323762e+07	2.873167211687420309e+07
4.804870439655131104e-09	1.173070253766451590e+07	2.872606764621389285e+07
4.962444877628916452e-09	1.172721900611670315e+07	2.872027937844073400e+07
5.125186927053329472e-09	1.172362123308564723e+07	2.871430128597768024e+07
5.293266058360561204e-09	1.171990547205253504e+07	2.870812714357490465e+07
5.466857299720180771e-09	1.171606785363246314e+07	2.870175052182720974e+07
5.646141419303669251e-09	1.171210438154510222e+07	2.869516478047874570e+07
5.831305113526221869e-09	1.170801092845316604e+07	2.868836306150827557e+07
6.022541201461928965e-09	1.170378323166445643e+07	2.868133828198757768e+07
6.220048825634711276e-09	1.169941688869292662e+07	2.867408312670570984e+07
6.424033659394191079e-09	1.169490735267418064e+07	2.866659004055134207e+07
6.634708121092347870e-09	1.169024992763062008e+07	2.865885122064529732e+07
6.852291595284060743e-09	1.168543976358132251e+07	2.865085860821506381e+07
7.077010661181889919e-09	1.168047185149154253e+07	2.864260388020284846e+07
7.309099328602911004e-09	1.167534101805658266e+07	2.863407844059840962e+07
7.548799281653435948e-09	1.167004192031460069e+07	2.862527341148765385e+07
7.796360130405233414e-09	1.166456904008275829e+07	2.861617962380766496e+07
8.052039670825474778e-09	1.165891667821088992e+07	2.860678760779859126e+07
8.316104153230961616e-09	1.165307894864672236e+07	2.859708758314231783e+07
8.588828559546249041e-09	1.164704977230648510e+07	2.858706944877783582e+07
8.870496889654407999e-09	1.164082287074447609e+07	2.857672277238253877e+07
9.161402457138517586e-09	1.163439175961505622e+07	2.856603677950860932e+07
9.461848194721997291e-09	1.162774974192020483e+07	2.855500034236309305e+07
9.772146969725725887e-09	1.162088990103564784e+07	2.854360196822004765e+07
1.009262190987047331e-08	1.161410348669218272e+07	2.853202560988248885e+07
1.042360673976401127e-08	1.160785264424524643e+07	2.852056713597533479e+07
1.076544612842315905e-08	1.160139680709599517e+07	2.850873288448819891e+07
1.111849604819270880e-08	1.159472925249812379e+07	2.849651053189608082e+07
1.148312414543511117e-08	1.158784303723466024e+07	2.848388735052727908e+07
1.185971012337669343e-08	1.158073099038769305e+07	2.847085019530953094e+07
1.224864613750930795e-08	1.157338570587098598e+07	2.845738549008142203e+07
1.265033720395903769e-08	1.156585927196097933e+07	2.844353147903438285e+07
1.306520162124721228e-08	1.155843003795502149e+07	2.842952412732021138e+07
1.349367140588306343e-08	1.155075716421147622e+07	2.841505740826167539e+07
1.393619274224142065e-08	1.154283266063046269e+07	2.840011625702987239e+07
1.439322644719406651e-08	1.153464827507891878e+07	2.838468511474886164e+07
1.486524844997857277e-08	1.152619548479729146e+07	2.836874791229353845e+07
1.535275028780422776e-08	1.151746548752441071e+07	2.835228805355615914e+07
1.585623961771137302e-08	1.150845653673954122e+07	2.833529549685764313e+07
1.637624074521687477e-08	1.149966716650674120e+07	2.831824346975431964e+07
1.691329517029648562e-08	1.149058955123342201e+07	2.830063222599346936e+07
1.746796215127245689e-08	1.148121423800074868e+07	2.828244342621472478e+07
1.804081928719382751e-08	1.147153146388395689e+07	2.826365812962330878e+07
1.863246311931559514e-08	1.146153114578577131e+07	2.824425677426615357e+07
1.924350975230330612e-08	1.145120286993645132e+07	2.822421915666120499e+07
1.987459549580983990e-08	1.144053588104946725e+07	2.820352441075859964e+07
2.052637752709252173e-08	1.143010816219431534e+07	2.818277869910682365e+07
2.119953457536071000e-08	1.141942120969710127e+07	2.816144080262121931e+07
2.189476762856620985e-08	1.140838378145771101e+07	2.813940313554064929e+07
2.261280066337277307e-08	1.139698438371813670e+07	2.811664274907606095e+07
2.335438139906479724e-08	1.138521114578565396e+07	2.809313594183898345e+07
2.412028207618007283e-08	1.137305180767135881e+07	2.806885823516030610e+07
2.491130026067788373e-08	1.136049370732329413e+07	2.804378434759948775e+07
2.572825967447932303e-08	1.134815897779710777e+07	2.801863255653930455e+07
2.657201105324503850e-08	1.133564318627623469e+07	2.799291777750251815e+07
2.744343303228365032e-08	1.132271694272768311e+07	2.796635968918086588e+07
2.834343306151309448e-08	1.130936678648723848e+07	2.793893063547242060e+07
2.927294835042816131e-08	1.129557881545180827e+07	2.791060205330081657e+07
3.023294684405776334e-08	1.128133867160256952e+07	2.788134444287125766e+07
3.122442823092858392e-08	1.126663152605330572e+07	2.785112733695106208e+07
3.224842498408442807e-08	1.125209986577933840e+07	2.782076439484966546e+07
3.330600343624588813e-08	1.123752419929568656e+07	2.778996144357671216e+07
3.439826489022924478e-08	1.122247052773716114e+07	2.775814831777445227e+07
3.552634676578139226e-08	1.120692317505548149e+07	2.772529188904000819e+07
3.669142378402493899e-08	1.119086595111055300e+07	2.769135794253339618e+07
3.789470919074667737e-08	1.117428213481098972e+07	2.765631114134815335e+07
3.913745601980383687e-08	1.115715445670169033e+07	2.762011498971341923e+07
4.042095839796305955e-08	1.114010778916271962e+07	2.758363384216715768e+07
4.174655289253134782e-08	1.112323441567576677e+07	2.754698414437569678e+07
4.311561990318228626e-08	1.110580768442874029e+07	2.750913252957025915e+07
4.452958509942655287e-08	1.108780944820224494e+07	2.747003958120457456e+07
4.598992090522439315e-08	1.106922096464368701e+07	2.742966459007731453e+07
4.749814803228499868e-08	1.105002287675004639e+07	2.738796551193980873e+07
4.905583706365045989e-08	1.103019519271057658e+07	2.734489892371351272e+07
5.066461008921269181e-08	1.101028902877767757e+07	2.730129296488635615e+07
5.232614239486661694e-08	1.099087982794488035e+07	2.725801248088189214e+07
5.404216420705915059e-08	1.097083410757401027e+07	2.721331262500718608e+07
5.581446249454960394e-08	1.095013099317745492e+07	2.716714684934224561e+07
5.764488282925879445e-08	1.092874892569437623e+07	2.711946707944054529e+07
5.953533130814369715e-08	1.090666563904031925e+07	2.707022366426696256e+07
6.148777653810024108e-08	1.088385813692055270e+07	2.701936532449398935e+07
6.350425168595962148e-08	1.086072496761214174e+07	2.696753715867089108e+07
6.558685659571428548e-08	1.083854986647507735e+07	2.691684702977338061e+07
6.773775997517751128e-08	1.081564753884094767e+07	2.686449453168773651e+07
6.995920165435375620e-08	1.079199413551173732e+07	2.681042514746208861e+07
7.225349491787214948e-08	1.076756502516137436e+07	2.675458257227573544e+07
7.462302891391107044e-08	1.074233476868605427e+07	2.669690865480648354e+07
7.707027114212294845e-08	1.071627709271337837e+07	2.663734333667510748e+07
7.959777002314985573e-08	1.068953180531008542e+07	2.657612174663413689e+07
8.220815755240541849e-08	1.066437897961383127e+07	2.651728821031742916e+07
8.490415204088747078e-08	1.063840127374186367e+07	2.645652524394936860e+07
8.768856094587425811e-08	1.061157163596995547e+07	2.639376957238867134e+07
9.056428379445295063e-08	1.058386212741983496e+07	2.632895584540274367e+07
9.353431520292386860e-08	1.055524389296520688e+07	2.626201656961564347e+07
9.660174799522647250e-08	1.052568713118364662e+07	2.619288203822426125e+07
9.976977642363202159e-08	1.049516106332306750e+07	2.612148025840955228e+07
1.030416994950587396e-07	1.046662258664598130e+07	2.605343155032065511e+07
1.064209244064724761e-07	1.043738182779102959e+07	2.598359636333286017e+07
1.099109700929497372e-07	1.040718212608832307e+07	2.591147095010928810e+07
1.135154708920999096e-07	1.037599203326424211e+07	2.583698020329451188e+07
1.172381803286598596e-07	1.034377906970747001e+07	2.576004655240749940e+07
1.210829750232039531e-07	1.031050969064653851e+07	2.568058988306410238e+07
1.250538587290391570e-07	1.027614925121819414e+07	2.559852745355040953e+07
1.291549665014884007e-07	1.024374638985644653e+07	2.552002473914050311e+07
1.333905690039058854e-07	1.021109981068099476e+07	2.544060719555723667e+07
1.377650769549053468e-07	1.017738259569341317e+07	2.535858517492249608e+07
1.422830457214352017e-07	1.014255963367925957e+07	2.527387326410958916e+07
1.469491800624817218e-07	1.010659466196122952e+07	2.518638324889122695e+07
1.517683390283405561e-07	1.006945022863723151e+07	2.509602402207819745e+07
1.567455410205594968e-07	1.003108765358009376e+07	2.500270148864542693e+07
1.618859690178197646e-07	9.994527945860402659e+06	2.491287172342863679e+07
1.671949759731990056e-07	9.958392246956106275e+06	2.482357066874663532e+07
1.726780903884356132e-07	9.921071487493541092e+06	2.473134100991625711e+07
1.783410220710008120e-07	9.882526803729388863e+06	2.463608670414956287e+07
1.841896680799711039e-07	9.842718057394292206e+06	2.453770855896112323e+07
1.902301188668944219e-07	9.801603793895104900e+06	2.443610412887454405e+07
1.964686646180446931e-07	9.759141199146416038e+06	2.433116760874149576e+07
2.029118018046678038e-07	9.718165362155390903e+06	2.422925573330784589e+07
2.095662399480432992e-07	9.678531362503686920e+06	2.413003275514887646e+07
2.164389086064020114e-07	9.637597576458530501e+06	2.402755578602097929e+07
2.235369645909794139e-07	9.595321377873593941e+06	2.392171811216266826e+07
2.308677994187169850e-07	9.551658742689512670e+06	2.381240952016324550e+07
2.384390470093720426e-07	9.506564203089695424e+06	2.369951618219276890e+07
2.462585916350547006e-07	9.459990800152692944e+06	2.358292053746810928e+07
2.543345761304648365e-07	9.414388531844761223e+06	2.346834423528462276e+07
2.626754103723835758e-07	9.371334597016707063e+06	2.335946750656969100e+07
2.712897800372467241e-07	9.326868719937913120e+06	2.324702019472433627e+07
2.801866556459195443e-07	9.280944596340777352e+06	2.313088520343200862e+07
2.893753019050950594e-07	9.233514403421660885e+06	2.301094159623384103e+07
2.988652873550382326e-07	9.184528750040896237e+06	2.288706447059221938e+07
3.086664943337274455e-07	9.133936625289635733e+06	2.275912482782427967e+07
3.187891292677645596e-07	9.083563917454466224e+06	2.263153178877367079e+07
3.292437333007768907e-07	9.037266756045119837e+06	2.251360336570682749e+07
3.400411932703706463e-07	8.989451291638744995e+06	2.239180751161988452e+07
3.511927530450727317e-07	8.940067731895584613e+06	2.226601739514932036e+07
3.627100252330649086e-07	8.889064651549441740e+06	2.213610202553104609e+07
3.746050032748993774e-07	8.836388938856309280e+06	2.200192611619399115e+07
3.868900739327976195e-07	8.781985740286763757e+06	2.186334994388024881e+07
3.995780301895269929e-07	8.726782949081499130e+06	2.172267340705892444e+07
4.126820845702951630e-07	8.677524394684201106e+06	2.159663475493480638e+07
4.262158829015325345e-07	8.626650419200727716e+06	2.146646269900284708e+07
4.401935185208874400e-07	8.574108045329624787e+06	2.133202168539326265e+07
4.546295469532399562e-07	8.519842558393033221e+06	2.119317171478344128e+07
4.695390010680058238e-07	8.463797449359903112e+06	2.104976819661052153e+07
4.849374067335232931e-07	8.405914356000665575e+06	2.090166179850288108e+07
5.008407989848212921e-07	8.346133002112070099e+06	2.074869829077381268e+07
5.172657387216018967e-07	8.294091969624632969e+06	2.061528123083740100e+07
