Frequency [GHz]	Zx imag [Ohm/m]	Zy imag [Ohm/m]
1.000000000000000166e-10	7.964988301304088905e+06	2.258679623943833634e+07
1.032794731918951654e-10	7.964987128528377041e+06	2.258679454291598126e+07
1.066664958279539403e-10	7.964985917291798629e+06	2.258679279075662792e+07
1.101645949633656381e-10	7.964984666333043016e+06	2.258679098113568127e+07
1.137774133221491146e-10	7.964983374349430203e+06	2.258678911216869950e+07
1.175087130904807540e-10	7.964982039995561354e+06	2.258678718190944195e+07
1.213623798344240958e-10	7.964980661881914362e+06	2.258678518834785745e+07
1.253424265461399975e-10	7.964979238573399372e+06	2.258678312940795347e+07
1.294529978227915867e-10	7.964977768587864004e+06	2.258678100294566154e+07
1.336983741824946476e-10	7.964976250394546427e+06	2.258677880674661323e+07
1.380829765218092491e-10	7.964974682412486523e+06	2.258677653852380812e+07
1.426113707194128486e-10	7.964973063008875586e+06	2.258677419591523707e+07
1.472882723907502473e-10	7.964971390497356653e+06	2.258677177648145333e+07
1.521185517986104510e-10	7.964969663136270829e+06	2.258676927770298347e+07
1.571072389247450498e-10	7.964967879126842134e+06	2.258676669697774574e+07
1.622595287078087593e-10	7.964966036611301824e+06	2.258676403161831200e+07
1.675807864530767868e-10	7.964964133670957759e+06	2.258676127884913236e+07
1.730765534195724819e-10	7.964962168324195780e+06	2.258675843580362573e+07
1.787525525904235329e-10	7.964960138524414040e+06	2.258675549952120334e+07
1.846146946324547531e-10	7.964958042157892138e+06	2.258675246694418788e+07
1.906690840512252406e-10	7.964955877041592263e+06	2.258674933491462097e+07
1.969220255479172543e-10	7.964953640920883976e+06	2.258674610017098486e+07
2.033800305846981002e-10	7.964951331467197277e+06	2.258674275934479758e+07
2.100498241653915480e-10	7.964948946275594644e+06	2.258673930895710737e+07
2.169383518385184289e-10	7.964946482862273231e+06	2.258673574541488290e+07
2.240527869300018610e-10	7.964943938661972992e+06	2.258673206500724703e+07
2.314005380130653023e-10	7.964941311025304720e+06	2.258672826390162483e+07
2.389892566231049743e-10	7.964938597215997055e+06	2.258672433813976496e+07
2.468268452255692806e-10	7.964935794408040121e+06	2.258672028363359720e+07
2.549214654451423314e-10	7.964932899682749063e+06	2.258671609616098553e+07
2.632815465648021228e-10	7.964929910025716759e+06	2.258671177136133611e+07
2.719157943036017723e-10	7.964926822323683649e+06	2.258670730473103747e+07
2.808331998823172083e-10	7.964923633361291140e+06	2.258670269161879644e+07
2.900430493863991314e-10	7.964920339817730710e+06	2.258669792722078040e+07
2.995549334359813486e-10	7.964916938263292424e+06	2.258669300657560304e+07
3.093787571730138678e-10	7.964913425155787729e+06	2.258668792455919087e+07
3.195247505759212065e-10	7.964909796836866066e+06	2.258668267587940767e+07
3.300034791125284578e-10	7.964906049528196454e+06	2.258667725507058203e+07
3.408258547423451742e-10	7.964902179327543825e+06	2.258667165648778155e+07
3.520031472796679687e-10	7.964898182204698212e+06	2.258666587430096045e+07
3.635469961293320139e-10	7.964894053997281007e+06	2.258665990248887613e+07
3.754694224073336536e-10	7.964889790406407788e+06	2.258665373483280838e+07
3.877828414589456106e-10	7.964885386992215179e+06	2.258664736491011828e+07
4.005000757873611052e-10	7.964880839169234969e+06	2.258664078608752042e+07
4.136343684063274911e-10	7.964876142201618291e+06	2.258663399151419848e+07
4.271993966306778827e-10	7.964871291198207997e+06	2.258662697411466390e+07
4.412092863191189219e-10	7.964866281107441522e+06	2.258661972658139467e+07
4.556786265841064474e-10	7.964861106712091714e+06	2.258661224136721343e+07
4.706224849841281415e-10	7.964855762623833492e+06	2.258660451067744195e+07
4.860564232142136024e-10	7.964850243277633563e+06	2.258659652646177262e+07
5.019965133110081441e-10	7.964844542925953865e+06	2.258658828040589020e+07
5.184593543892912175e-10	7.964838655632770620e+06	2.258657976392281428e+07
5.354620899273606527e-10	7.964832575267383829e+06	2.258657096814395860e+07
5.530224256192902378e-10	7.964826295498046093e+06	2.258656188390989229e+07
5.711586478126431938e-10	7.964819809785354882e+06	2.258655250176081061e+07
5.898896425508497150e-10	7.964813111375454813e+06	2.258654281192666292e+07
6.092349152400710261e-10	7.964806193292998709e+06	2.258653280431699753e+07
6.292146109610343618e-10	7.964799048333882354e+06	2.258652246851046011e+07
6.498495354469890483e-10	7.964791669057747349e+06	2.258651179374391586e+07
6.711611767496282870e-10	7.964784047780229710e+06	2.258650076890126616e+07
6.931717276155404727e-10	7.964776176564959809e+06	2.258648938250185549e+07
7.159041085964887260e-10	7.964768047215294093e+06	2.258647762268853188e+07
7.393819919175865964e-10	7.964759651265785098e+06	2.258646547721528262e+07
7.636298261282244400e-10	7.964750979973364621e+06	2.258645293343449011e+07
7.886728615614152294e-10	7.964742024308231659e+06	2.258643997828377038e+07
8.145371766280743462e-10	7.964732774944462813e+06	2.258642659827235714e+07
8.412497049736117954e-10	7.964723222250288352e+06	2.258641277946705744e+07
8.688382635251186617e-10	7.964713356278069317e+06	2.258639850747774169e+07
8.973315814583522479e-10	7.964703166753936559e+06	2.258638376744236052e+07
9.267593301146878953e-10	7.964692643067091703e+06	2.258636854401147366e+07
9.571521538991863169e-10	7.964681774258757010e+06	2.258635282133224979e+07
9.885417021919573871e-10	7.964670549010766670e+06	2.258633658303197846e+07
1.020960662306046580e-09	7.964659258646226488e+06	2.258631983787016198e+07
1.054442793526168950e-09	7.964647769093404524e+06	2.258630255804766715e+07
1.089022962263730067e-09	7.964635902743778192e+06	2.258628471153802797e+07
1.124737178364752061e-09	7.964623647240396589e+06	2.258626627975688875e+07
1.161622632608501755e-09	7.964610989821068011e+06	2.258624724351042882e+07
1.199717735435884489e-09	7.964597917305064388e+06	2.258622758297536522e+07
1.239062156947916503e-09	7.964584416079403833e+06	2.258620727767833322e+07
1.279696868215940940e-09	7.964570472084666602e+06	2.258618630647452176e+07
1.321664183946605026e-09	7.964556070800360292e+06	2.258616464752570540e+07
1.365007806546013663e-09	7.964541197229796089e+06	2.258614227827746794e+07
1.409772871628966933e-09	7.964525835884472355e+06	2.258611917543573305e+07
1.456005995020649598e-09	7.964509970767946914e+06	2.258609531494249403e+07
1.503755321299737753e-09	7.964493585359178483e+06	2.258607067195078358e+07
1.553070573933460069e-09	7.964476662595321424e+06	2.258604522079875693e+07
1.604003107056820079e-09	7.964459184853960760e+06	2.258601893498302624e+07
1.656605958949914401e-09	7.964441133934757672e+06	2.258599178713101521e+07
1.710933907269014249e-09	7.964422491040497087e+06	2.258596374897247553e+07
1.767043526088946692e-09	7.964403236757519655e+06	2.258593479131004214e+07
1.824993244816152494e-09	7.964383351035491563e+06	2.258590488398883492e+07
1.884843409033795523e-09	7.964362813166541047e+06	2.258587399586504325e+07
1.946656343342262358e-09	7.964341601763684303e+06	2.258584209477351606e+07
2.010496416260498236e-09	7.964319694738557562e+06	2.258580914749423787e+07
2.076430107255774870e-09	7.964297069278414361e+06	2.258577511971777678e+07
2.144526075971667793e-09	7.964273701822371222e+06	2.258573997600950301e+07
2.214855233726359314e-09	7.964249568036871962e+06	2.258570367977273837e+07
2.287490817355702788e-09	7.964224642790346406e+06	2.258566619321062043e+07
2.362508465477946229e-09	7.964198900127043016e+06	2.258562747728674859e+07
2.439986297259550245e-09	7.964172313239997253e+06	2.258558749168452621e+07
2.520004993764092080e-09	7.964144854443119839e+06	2.258554619476520643e+07
2.602647881969005809e-09	7.964116495142358355e+06	2.258550354352448508e+07
2.688001021537606561e-09	7.964087205805931240e+06	2.258545949354775622e+07
2.776153294436799262e-09	7.964056955933568999e+06	2.258541399896385148e+07
2.867196497493770032e-09	7.964025714024751447e+06	2.258536701239726320e+07
2.961225437988034610e-09	7.963993447545909323e+06	2.258531848491882160e+07
3.058338032378433485e-09	7.963960122896544635e+06	2.258526836599473283e+07
3.158635408267817403e-09	7.963925705374236219e+06	2.258521660343396291e+07
3.262222009711669644e-09	7.963890159138511866e+06	2.258516314333388954e+07
3.369205705980266915e-09	7.963853447173514403e+06	2.258510793002416939e+07
3.479697903887691433e-09	7.963815531249468215e+06	2.258505090600875393e+07
3.593813663804627762e-09	7.963776371882856824e+06	2.258499201190604270e+07
3.711671819475765297e-09	7.963735928295315243e+06	2.258493118638702109e+07
3.833395101766601886e-09	7.963694158371163532e+06	2.258486836611140892e+07
3.959110266468459240e-09	7.963651018613545224e+06	2.258480348566170037e+07
4.088948226294862618e-09	7.963606464099141769e+06	2.258473647747503594e+07
4.223044187206674123e-09	7.963560448431381956e+06	2.258466727177285030e+07
4.361537789208003199e-09	7.963512923692135140e+06	2.258459579648821801e+07
4.504573251759458750e-09	7.963463840391804464e+06	2.258452197719078511e+07
4.652299523960189308e-09	7.963413147417797707e+06	2.258444573700928316e+07
4.804870439655131104e-09	7.963360791981298476e+06	2.258436699655146897e+07
4.962444877628916452e-09	7.963306719562294893e+06	2.258428567382144928e+07
5.125186927053329472e-09	7.963250873852805234e+06	2.258420168413430080e+07
5.293266058360561204e-09	7.963193196698243730e+06	2.258411494002787769e+07
5.466857299720180771e-09	7.963133628036861308e+06	2.258402535117173567e+07
5.646141419303669251e-09	7.963072105837198906e+06	2.258393282427307591e+07
5.831305113526221869e-09	7.963008566033490002e+06	2.258383726297957823e+07
6.022541201461928965e-09	7.962942942458952777e+06	2.258373856777907908e+07
6.220048825634711276e-09	7.962875166776881553e+06	2.258363663589593768e+07
6.424033659394191079e-09	7.962805168409485370e+06	2.258353136118401587e+07
6.634708121092347870e-09	7.962732874464395456e+06	2.258342263401613757e+07
6.852291595284060743e-09	7.962658209658757783e+06	2.258331034116993845e+07
7.077010661181889919e-09	7.962581096240836196e+06	2.258319436570994928e+07
7.309099328602911004e-09	7.962501453909044154e+06	2.258307458686583862e+07
7.548799281653435948e-09	7.962419199728334323e+06	2.258295087990665063e+07
7.796360130405233414e-09	7.962334248043817468e+06	2.258282311601089686e+07
8.052039670825474778e-09	7.962246510391580872e+06	2.258269116213243455e+07
8.316104153230961616e-09	7.962155895406559110e+06	2.258255488086190075e+07
8.588828559546249041e-09	7.962062308727396652e+06	2.258241413028363138e+07
8.870496889654407999e-09	7.961965652898180299e+06	2.258226876382788643e+07
9.161402457138517586e-09	7.961865827266955748e+06	2.258211863011819124e+07
9.461848194721997291e-09	7.961762727880916558e+06	2.258196357281373814e+07
9.772146969725725887e-09	7.961656247378150932e+06	2.258180343044655025e+07
1.009262190987047331e-08	7.961547148128955625e+06	2.258163814345729724e+07
1.042360673976401127e-08	7.961436689682014287e+06	2.258146770829964057e+07
1.076544612842315905e-08	7.961322608779916540e+06	2.258129168376668170e+07
1.111849604819270880e-08	7.961204786625217646e+06	2.258110988655635342e+07
1.148312414543511117e-08	7.961083100524540991e+06	2.258092212735524774e+07
1.185971012337669343e-08	7.960957423760814592e+06	2.258072821064147726e+07
1.224864613750930795e-08	7.960827625461314805e+06	2.258052793448106200e+07
1.265033720395903769e-08	7.960693775679565035e+06	2.258032112764184177e+07
1.306520162124721228e-08	7.960556718183373101e+06	2.258010775357804447e+07
1.349367140588306343e-08	7.960415165923335589e+06	2.257988738196902722e+07
1.393619274224142065e-08	7.960268971494878642e+06	2.257965978333216533e+07
1.439322644719406651e-08	7.960117982659332454e+06	2.257942472065902874e+07
1.486524844997857277e-08	7.959962042185400613e+06	2.257918194916853681e+07
1.535275028780422776e-08	7.959800987685431726e+06	2.257893121605210006e+07
1.585623961771137302e-08	7.959634678455040790e+06	2.257867226480142400e+07
1.637624074521687477e-08	7.959464809145325795e+06	2.257840514326462150e+07
1.691329517029648562e-08	7.959289369017137215e+06	2.257812926154862344e+07
1.746796215127245689e-08	7.959108175376976840e+06	2.257784433236571029e+07
1.804081928719382751e-08	7.958921039539962076e+06	2.257755005900663137e+07
1.863246311931559514e-08	7.958727766633340158e+06	2.257724613503162563e+07
1.924350975230330612e-08	7.958528155393557623e+06	2.257693224395133927e+07
1.987459549580983990e-08	7.958321997956679203e+06	2.257660805889721960e+07
2.052637752709252173e-08	7.958111378583746031e+06	2.257627370906580985e+07
2.119953457536071000e-08	7.957894174902094528e+06	2.257592845988339931e+07
2.189476762856620985e-08	7.957669848083931021e+06	2.257557188834661245e+07
2.261280066337277307e-08	7.957438164527904242e+06	2.257520362314186245e+07
2.335438139906479724e-08	7.957198882971766405e+06	2.257482328077844903e+07
2.412028207618007283e-08	7.956951754241143353e+06	2.257443046518918872e+07
2.491130026067788373e-08	7.956696520990049466e+06	2.257402476731798798e+07
2.572825967447932303e-08	7.956435595275629312e+06	2.257360636370776594e+07
2.657201105324503850e-08	7.956167054574821144e+06	2.257317444938240573e+07
2.744343303228365032e-08	7.955889707153719850e+06	2.257272837054252997e+07
2.834343306151309448e-08	7.955603264198295772e+06	2.257226766266668960e+07
2.927294835042816131e-08	7.955307427422937937e+06	2.257179184599956498e+07
3.023294684405776334e-08	7.955001888759840280e+06	2.257130042505240068e+07
3.122442823092858392e-08	7.954686330038196407e+06	2.257079288808701560e+07
3.224842498408442807e-08	7.954363416818575002e+06	2.257026943957347050e+07
3.330600343624588813e-08	7.954031882641508244e+06	2.256972930670411512e+07
3.439826489022924478e-08	7.953689475889982656e+06	2.256917146032211185e+07
3.552634676578139226e-08	7.953335840000833385e+06	2.256859531951755658e+07
3.669142378402493899e-08	7.952970606717502698e+06	2.256800028432976454e+07
3.789470919074667737e-08	7.952593395706557669e+06	2.256738573512250930e+07
3.913745601980383687e-08	7.952203814161631279e+06	2.256675103193875030e+07
4.042095839796305955e-08	7.951804618560148403e+06	2.256609637562648207e+07
4.174655289253134782e-08	7.951395934581159614e+06	2.256542123200661317e+07
4.311561990318228626e-08	7.950973847920640372e+06	2.256472394723272696e+07
4.452958509942655287e-08	7.950537919041242450e+06	2.256400379519160837e+07
4.598992090522439315e-08	7.950087693991108797e+06	2.256326002595736086e+07
4.749814803228499868e-08	7.949622703931152821e+06	2.256249186501046270e+07
4.905583706365045989e-08	7.949142464646835811e+06	2.256169851243124530e+07
5.066461008921269181e-08	7.948649543657433242e+06	2.256088006533582881e+07
5.232614239486661694e-08	7.948146626231946051e+06	2.256003663412248343e+07
5.404216420705915059e-08	7.947627215764313005e+06	2.255916554280859977e+07
5.581446249454960394e-08	7.947090771369636990e+06	2.255826588428859785e+07
5.764488282925879445e-08	7.946536734424848109e+06	2.255733672170861810e+07
5.953533130814369715e-08	7.945964527986982837e+06	2.255637708749091625e+07
6.148777653810024108e-08	7.945373556192385033e+06	2.255538598232630640e+07
6.350425168595962148e-08	7.944765680959162302e+06	2.255436319987944514e+07
6.558685659571428548e-08	7.944147941348604858e+06	2.255331023235034943e+07
6.773775997517751128e-08	7.943509943133126013e+06	2.255222273303341866e+07
6.995920165435375620e-08	7.942851021937204525e+06	2.255109956946792454e+07
7.225349491787214948e-08	7.942170491597307846e+06	2.254993957205440104e+07
7.462302891391107044e-08	7.941467643447350711e+06	2.254874153283667192e+07
7.707027114212294845e-08	7.940741745580735616e+06	2.254750420424396917e+07
7.959777002314985573e-08	7.939993120059473440e+06	2.254622669753459468e+07
8.220815755240541849e-08	7.939235889848547056e+06	2.254491320867665857e+07
8.490415204088747078e-08	7.938453826475851238e+06	2.254355664430374652e+07
8.768856094587425811e-08	7.937646115544505417e+06	2.254215559176589549e+07
9.056428379445295063e-08	7.936811915949697606e+06	2.254070859208566323e+07
9.353431520292386860e-08	7.935950359002811834e+06	2.253921413843882829e+07
9.660174799522647250e-08	7.935060547526819631e+06	2.253767067458528280e+07
9.976977642363202159e-08	7.934141554922013544e+06	2.253607659324843064e+07
1.030416994950587396e-07	7.933213751715156250e+06	2.253443899605912715e+07
1.064209244064724761e-07	7.932257188651006669e+06	2.253274837921631709e+07
1.099109700929497372e-07	7.931269255357606336e+06	2.253100231904737279e+07
1.135154708920999096e-07	7.930248923056693748e+06	2.252919899730326980e+07
1.172381803286598596e-07	7.929195129231505096e+06	2.252733653610600531e+07
1.210829750232039531e-07	7.928106776520322077e+06	2.252541299599307030e+07
1.250538587290391570e-07	7.926982731573742814e+06	2.252342637389779463e+07
1.291549665014884007e-07	7.925846292607262731e+06	2.252138573821111023e+07
1.333905690039058854e-07	7.924679080973046832e+06	2.251928113738005236e+07
1.377650769549053468e-07	7.923473590946194716e+06	2.251710751672894135e+07
1.422830457214352017e-07	7.922228567197080702e+06	2.251486261277128756e+07
1.469491800624817218e-07	7.920942713227881119e+06	2.251254408779015392e+07
1.517683390283405561e-07	7.919614690022475086e+06	2.251014952740382031e+07
1.567455410205594968e-07	7.918243114652065560e+06	2.250767643805154786e+07
1.618859690178197646e-07	7.916853709272255190e+06	2.250513596079492569e+07
1.671949759731990056e-07	7.915433134363842197e+06	2.250251944194773212e+07
1.726780903884356132e-07	7.913965972082136199e+06	2.249981711506639048e+07
1.783410220710008120e-07	7.912450694606720470e+06	2.249702616609941050e+07
1.841896680799711039e-07	7.910885724012715742e+06	2.249414368870926648e+07
1.902301188668944219e-07	7.909269430627618916e+06	2.249116668124584481e+07
1.964686646180446931e-07	7.907600131334256381e+06	2.248809204362073913e+07
2.029118018046678038e-07	7.905904829300384037e+06	2.248493269545602053e+07
2.095662399480432992e-07	7.904180738460880704e+06	2.248168477427862212e+07
2.164389086064020114e-07	7.902400106524492614e+06	2.247833033839691430e+07
2.235369645909794139e-07	7.900561079241104424e+06	2.247486589468972385e+07
2.308677994187169850e-07	7.898661741550966166e+06	2.247128783547991142e+07
2.384390470093720426e-07	7.896700115590455011e+06	2.246759243477752432e+07
2.462585916350547006e-07	7.894674158632445149e+06	2.246377584439976513e+07
2.543345761304648365e-07	7.892609991241866723e+06	2.245985166560837626e+07
2.626754103723835758e-07	7.890523821091452613e+06	2.245582724082039297e+07
2.712897800372467241e-07	7.888369235550218262e+06	2.245167083610035852e+07
2.801866556459195443e-07	7.886143990953763016e+06	2.244737812320178375e+07
2.893753019050950594e-07	7.883845770057312213e+06	2.244294463193449751e+07
2.988652873550382326e-07	7.881472179622672498e+06	2.243836574550963566e+07
3.086664943337274455e-07	7.879020747926041484e+06	2.243363669573197886e+07
3.187891292677645596e-07	7.876513126362549141e+06	2.242876927249089628e+07
3.292437333007768907e-07	7.873997063206989318e+06	2.242379318346963078e+07
3.400411932703706463e-07	7.871398486434752122e+06	2.241865390494290739e+07
3.511927530450727317e-07	7.868714690033898689e+06	2.241334608515464514e+07
3.627100252330649086e-07	7.865942879249553196e+06	2.240786419683935121e+07
3.746050032748993774e-07	7.863080167673605494e+06	2.240220253146634996e+07
3.868900739327976195e-07	7.860123574238963425e+06	2.239635519329522550e+07
3.995780301895269929e-07	7.857084587083000690e+06	2.239032724854562804e+07
4.126820845702951630e-07	7.854060671268424019e+06	2.238418948175803572e+07
4.262158829015325345e-07	7.850937586945362389e+06	2.237785042855406180e+07
4.401935185208874400e-07	7.847712081909166649e+06	2.237130348779964447e+07
4.546295469532399562e-07	7.844380797300005332e+06	2.236454184187829494e+07
4.695390010680058238e-07	7.840940264105141163e+06	2.235755844959162548e+07
4.849374067335232931e-07	7.837386899546492845e+06	2.235034603882702813e+07
5.008407989848212921e-07	7.833717003349733539e+06	2.234289709898491949e+07
5.172657387216018967e-07	7.830092833740533330e+06	2.233534491142781079e+07
