# Frequency (Hz)	Real Part (Ohm/m)
1000.0	424842629.8425117
1018.6101701559753	419804156.7165209
1037.566678745186	414671916.74832875
1056.875971184804	409444164.9210476
1076.544612842316	404119123.7427272
1096.5792912678098	398694982.6419911
1116.9868184678226	393169897.3524201
1137.7741332214914	387541989.2854837
1158.9483034398106	381809344.8917997
1180.5165285688056	375970015.0105052
1202.4861420374123	370022014.20652336
1224.8646137509306	363963320.0954915
1247.6595526308697	357791872.65612996
1270.8787092020582	352753671.5749537
1294.529978227916	348819919.3470581
1318.6214013947485	344812959.3208502
1343.1611700460153	340731429.0867464
1368.1576279674719	336573940.8804889
1393.6192742241421	332339081.1112917
1419.5547660501015	328025409.8812028
1445.9729217920196	323631460.4955253
1472.8827239075017	319155738.96412367
1500.2933220192183	314596723.4934515
1528.2140360258693	309952863.9691267
1556.654359271062	305222581.4288735
1585.6239617711371	300452434.73294044
1615.1326935030913	297489454.0659514
1645.1905877536624	294471331.8245811
1675.8078645307671	291397041.8147474
1706.994934038408	288265538.7447216
1738.7624002162504	285075757.8697189
1771.1210643450886	281826614.6298719
1804.0819287193829	278517004.2814704
1837.6562003881704	275145801.52133524
1871.8552949655793	271711860.1042034
1906.690840512252	268214012.4529933
1942.1746814890264	264651069.26181433
1978.3188827841643	261021819.0915916
2015.1357338155585	258131096.88328734
2052.6377527092523	255886595.11198524
2090.83769055575	253600322.78080383
2129.748535745521	251271502.53251612
2169.3835183851843	248899342.54314518
2209.756114795903	246483036.25273472
2250.880052095462	244021762.09111091
2292.7693128656488	241514683.19853884
2335.438139906479	238960947.14118135
2378.9010410788933	236359685.62126312
2423.1727942376006	233710014.18183893
2468.2684522556924	231011031.90606973
2514.2033481427966	228317367.37273377
2560.9931002584594	226638740.2304915
2608.6536176225477	224928873.55150378
2657.201105324507	223187185.96267593
2706.652070033241	221413085.27146158
2757.0233256095826	219605968.2645099
2808.3319988231724	217765220.50256696
2860.595535175742	215890216.11156017
2913.8317048327885	213980317.5697934
2968.058608665602	212034875.49118382
3023.2946844057765	210053228.40446272
3079.5587129142264	208034702.52826852
3136.8698245668766	205978611.54205424
3195.2475057592137	204325886.53503755
3254.711605531848	202989075.0295431
3315.282342319423	201627385.23446497
3376.9803108250912	200240354.16060075
3439.8264890229248	198827510.20244032
3503.8422452906757	197388372.97781458
3569.0493456752297	195922453.16456088
3635.4699612933177	194429252.3341475
3703.126675869927	192908262.782203
3772.0424934169973	191358967.35589144
3842.240846055061	189780839.27807423
3913.745601980384	188173341.96820107
3986.581073580439	186575050.97580135
4060.7720257003652	185433996.96723107
4136.343684063274	184271707.7494042
4213.321743847289	183087788.13146302
4291.732378422157	181881835.56798103
4371.602248248502	180653440.02209264
4452.958509942656	179402183.8260763
4535.828825510186	178127641.5393435
4620.241371751313	176829379.80378354
4706.224849841282	175506957.19641784
4793.808495089107	174159924.079311
4883.02208687788	172787822.44668898
4973.895958790063	171390185.76921266
5066.461008921268	170176695.967284
5160.7487103859075	169089546.40679032
5256.791122018419	167982164.80799082
5354.620899273607	166854174.64921
5454.271305329837	165705192.40164003
5555.7762223988775	164534827.39893663
5659.170163246243	163342681.70438832
5764.488282925873	162128349.97561377
5871.766390733255	160891419.32674086
5981.040962380944	159631469.18802127
6092.349152400711	158348071.16283214
6205.7288067765	157040788.8820164
6321.218475812449	155738371.2149261
6438.857427240419	154676892.00210384
6558.685659571435	153595658.48051396
6680.743915695614	152494303.01910898
6805.073696735207	151372451.14516506
6931.7172761554075	150229721.41695714
7060.717714137772	149065725.2940651
7192.118872221193	147880067.00526503
7325.9654282152305	146672343.41396365
7462.302891391108	145442143.88112676
7601.17761795533	144189050.1256579
7742.63682681127	142912636.0821784
7886.728615614156	141612467.75616026
8033.501977124734	140472815.33905026
8183.006815867389	139429894.57671484
8335.293965098195	138367564.8815331
8490.415204088747	137285465.04996234
8648.423275731726	136183227.15640023
8809.37190447399	135060476.42808664
8973.31581458352	133916831.11767638
9140.310748756232	132751902.37344125
9310.413487069076	131565294.10705636
9483.681866285928	130356602.85892552
9660.174799522645	129125417.66100098
9839.952296278227	127871319.89704953
10023.075482838643	126635050.09271695
10209.606623060476	125666613.78585553
10399.609139541202	124680154.7145383
10593.147635183701	123675337.47205196
10790.287915161836	122651820.40970728
10991.097009294961	121609255.52067485
11195.643194838794	120547288.32165875
11403.996019700331	119465557.73236899
11616.226326085018	118363695.95274965
11832.40627458378	117241328.33792321
12052.609368708414	116098073.2708073
12276.910479883603	114933542.03236055
12505.385872903913	113747338.6694145
12738.113231864785	112756310.07061738
12975.171686575868	111871516.36652015
13216.641839466038	110970256.50103676
13462.60579298911	110052224.03610185
13713.147177539457	109117106.83078589
13968.351179887397	108164586.93516321
14228.30457214352	107194340.48220606
14493.095741262152	106206037.57766616
14762.81471909391	105199342.18790698
15037.553212997384	104173912.0256493
15317.404637020798	103129398.43358889
15602.46414366368	102065446.26585004
15892.828656229764	101029714.56503415
16188.596901781992	100249348.52488911
16489.86944471065	99454459.73995313
16796.74872092653	98644777.93947439
17109.339072690134	97820027.82291655
17427.746784089173	96979928.96635342
17752.08011717636	96124195.7271217
18082.44934877952	95252537.14669986
18418.96680799711	94364656.85177845
18761.746914391195	93460252.9534904
19110.90621689136	92539017.94476551
19466.563433422634	91600638.59577449
19828.839491270715	90644795.847428
20197.857568198782	89861054.73431033
20573.743134329117	89160359.97963051
20956.623994804308	88446625.17633872
21346.630333242454	87719607.64691132
21743.8947560008	86979060.197555
22148.552337263594	86224731.03415757
22560.74066496859	85456363.67667572
22980.599887588487	84673696.87192883
23408.272761782944	83876464.50477007
23843.904700937204	83064395.50760472
24287.643824604504	82237213.76822373
24739.641008868115	81394638.03592296
25200.049937640895	80580283.86016051
25669.02715491952	79959659.9894174
26146.73211801092	79327486.20283699
26633.327251749808	78683547.55452015
27128.978003724646	78027625.09838812
27633.85290053167	77359495.81373835
28148.123605075813	76678932.529415
28671.9649749377	75985703.84656854
29205.555121827452	75279574.05997731
29749.075472144435	74560303.07790533
30302.71082866393	73827646.34046891
30866.649433372746	73081354.7364827
31441.083031472648	72321174.51876041
32026.206936576502	71700934.5302877
32622.220097116733	71139839.8020496
33229.325163989684	70568303.00544551
33847.72855945983	69986129.81180607
34477.64054734464	69393122.27597281
35119.275304507275	68789078.76899394
35772.850993678774	68173793.9095685
36438.58983763541	67547058.4942149
37116.71819475767	66908659.426138654
37807.46663599349	66258379.64277816
38511.07002325569	65595998.042000346
39227.76758927724	64921289.40692378
39957.803018952654	64274051.94731855
40701.42453219439	63776364.169114985
41458.88496832911	63269414.336674556
42230.44187206672	62753030.08159188
43016.357581068	62227035.82765619
43816.89931514195	61691252.73115374
44632.33926710398	61145498.620058686
45462.95469532399	60589587.932092845
46309.02801799737	60023331.651632406
47170.84690917022	59446537.24544066
48048.70439655134	58859008.59720475
48942.898961145314	58260545.94085363
49853.73463873893	57650945.79263584
50781.5211232767	57158493.530555554
51726.57387216025	56709204.479429066
52689.21421350677	56251554.08261193
53669.76945540476	55785386.73403809
54668.57299720181	55310543.931786135
55685.96444286409	54826864.224186935
56722.28971644549	54334183.154928245
57777.90117970507	53832333.2071381
58853.15775191451	53321143.7464268
59948.42503189409	52800440.962869726
61064.07542232036	52270047.81190996
62200.48825634718	51729783.95416122
63358.04992658254	51215623.63074405
64537.15401646702	50817593.20024661
65738.20143409586	50412155.355710365
66961.60054853215	49999172.243899636
68207.76732865692	49578503.446106516
69477.1254846024	49150005.9304072
70770.10661181889	48713534.0030293
72087.15033782135	48268939.258814596
73428.70447166757	47816070.53075962
74795.2251562183	47354773.838617146
76187.17702322999	46884892.33654158
77605.0333513357	46406266.259759225
79049.2762269642	45918732.87024687
80520.3967082547	45528651.67717824
82018.89499202212	45169577.71223333
83545.28058382872	44803821.319702245
85100.07247122246	44431258.13847052
86683.79930019774	44051761.49304223
88296.99955494083	43665202.35046889
89940.22174092053	43271449.276476875
91614.0245713852	42870368.39077847
93318.97715733238	42461823.321550906
95055.6592010119	42045675.15906863
96824.66119303113	41621782.40847247
98626.5846131283	41190000.94165978
100462.04213468131	40782331.78349718
102331.6578330245	40464413.306227915
104236.06739764012	40140578.312000945
106175.9183482999	39810716.69342895
108151.87025522892	39474716.294007376
110164.59496336569	39132462.86998012
112214.77682079803	38783840.051495254
114303.11291144787	38428729.30303813
116430.31329208757	38067009.883127995
118597.10123376705	37698558.80326458
120804.21346773289	37323250.78611079
123052.40043592616	36940958.22289687
125342.42654613995	36551551.13003217
127675.07043192645	36242965.552900225
130051.12521734099	35956322.156482644
132471.39878661174	35664344.27768368
134936.71405883064	35366932.64087848
137447.90926775365	35063986.12290598
140005.8382468096	34755401.71868584
142611.37071941298	34441074.50619566
145265.39259467812	34120897.61079641
147968.80626863963	33794762.16889376
150722.53093107554	33462557.290923424
153527.5028780421	33124170.023647405
156384.6758302248	32779485.311748732
159295.0212572123	32456642.98431629
162259.5287078087	32202978.74284511
165279.2061464897	31944593.76667763
168355.08029612005	31681400.202137984
171488.19698705408	31413308.560578242
174679.62151272458	31140227.687951706
177930.43899185772	30862064.73381925
181241.75473742394	30578725.119779266
184614.69463245457	30290112.507310133
188050.40551285836	29996128.765013725
191550.05555735278	29696673.935250126
195114.83468466165	29391646.20015059
198745.9549580986	29080941.846998535
202444.65099768018	28837089.21747205
206212.18039991445	28608479.454201497
210049.82416539153	28375615.224337183
213958.88713434216	28138417.351531856
217940.6984302958	27896805.18595296
221996.61191199525	27650696.576860934
226128.00663372796	27400007.844676808
230336.28731421314	27144653.752530575
234622.88481422624	26884547.477279473
238989.25662310526	26619600.579987284
243436.8873543108	26349722.97585425
247967.289250216	26074822.903586954
252582.00269627848	25819409.52682969
257282.5967447932	25617181.032458317
262070.66964838552	25411189.031396285
266947.8494034318	25201363.484143768
271915.7943036019	24987633.047753755
276976.1935036891	24769925.05157505
282130.76759394706	24548165.47254313
287381.2691851069	24322278.910011694
292729.4835042813	24092188.560115643
298177.22900196735	23857816.18965673
303726.35797033116	23619082.109503742
309378.7571730137	23375905.14749708
315136.34848664823	23128202.62084943
321001.08955431683	22935671.41458745
326974.9744511768	22753480.464099113
333060.03436245886	22567898.909021337
339258.33827409917	22378863.64962575
345571.9936762143	22186310.411887307
352003.14727966755	21990173.72563051
358553.9857459817	21790386.902268607
365226.7364308176	21586882.012129035
372023.6681413066	21379589.861356393
378947.09190746717	21168439.968385853
385999.3617679763	20953360.53997876
393182.87557057705	20734278.446811914
400500.07578736113	20532371.361614924
407953.4503452449	20371254.917062085
415545.53347188793	20207140.06806117
423278.90655735444	20039971.013795264
431156.19903182285	19869690.914984617
439180.0892596086	19696241.874560945
447353.3054498463	19519564.917981602
455678.6265841069	19339599.973177653
464158.8833612772	19156285.85012884
472796.9591600391	18969560.220058046
481595.7910192351	18779359.594239175
490558.37063650455	18585619.302410044
499687.7453854889	18388273.47078388
508987.01935196744	18236370.052659806
518459.3543892913	18091257.650061484
528107.971193433	17943444.680959083
537936.1503980698	17792880.88735042
547947.2336900292	17639515.07592336
558144.6249454955	17483295.100649565
568531.7913873753	17324167.845054127
579112.2647641759	17162079.204155624
589889.6425508494	16996974.066069648
600867.5891719693	16828796.293270245
612049.837247669	16657488.703502635
623440.1888627864	16482993.050340397
635042.5168595962	16323485.819686024
646860.7661546321	16195190.46552689
658898.9550799957	16064507.512996618
671161.1767496273	15931392.528483301
683651.6004510239	15795800.251457851
696374.4730628222	15657684.579085138
709334.1204987989	15516998.55054836
722534.9491787221	15373694.33108193
735981.4475265756	15227723.19570719
749678.1874966876	15079035.512665235
763629.8261282241	14927580.726541787
777841.1071286482	14773307.341077648
792316.8624866261	14616162.901659459
807062.014114949	14496383.40636853
822081.5755240541	14380857.17178101
837380.653526649	14263180.974310359
852964.4499741016	14143314.802781466
868838.2635251193	14021217.901404466
885007.4914473438	13896848.755917333
901477.6314524917	13770165.079470532
918254.2835656282	13641123.798249071
935343.1520292377	13509681.036826933
952750.04724273	13375792.103248943
970480.8877380306	13239411.473835083
988541.7021919574	13100492.777701847
1006938.6314760271	12974547.366578799
1025677.9307444209	12872429.336237941
1044765.9715608052	12768410.871976435
1064209.2440647245	12662456.606395673
1084014.359178331	12554530.5139037
1104188.0508541602	12444595.898466183
1124737.1783647507	12332615.381129341
1145668.7286348727	12218550.887310691
1166989.8186171474	12102363.633853337
1188707.6977119034	11984014.115839183
1210829.7502320395	11863462.09315691
1233363.4979137748	11740666.576819874
1256316.6024741214	11615585.8150294
1279696.8682159416	11521181.938762743
1303512.244681509	11429243.58006554
1327770.8293554292	11335594.23286912
1352480.870417874	11240202.05538638
1377650.769549055	11143034.613249125
1403289.084785873	11044058.868480086
1429404.533431761	10943241.168259582
1456005.9950206485	10840547.233483238
1483102.5143361029	10735942.147106722
1510703.3044866556	10629390.342273546
1538817.7500383463	10520855.59022201
1567455.410205595	10410300.987966958
1596626.022101425	10310898.197732687
1626339.5040481905	10229642.95219293
1656605.9589499151	10146875.532707602
1687435.6777273756	10062567.797462288
1718839.1428171457	9976691.080918595
1750827.0317357269	9889216.184067579
1783410.2207100063	9800113.364501808
1816599.7883753285	9709352.32630252
1850407.019542302	9616902.209738823
1884843.4090337954	9522731.580774935
1919920.6655932867	9426808.42038232
1955650.715865947	9329100.113652924
1992045.7084538713	9229573.43870962
2029118.018046678	9155198.93406606
2066880.2496290822	9082053.71731967
2105345.242766708	9007547.25564352
2144526.0759716653	8931654.216037877
2184436.0711494284	8854348.794051502
2225088.7981283693	8775604.705007989
2266498.079273693	8695395.175068598
2308677.994187172	8613692.932128897
2351642.884494346	8530470.19654598
2395407.3587208795	8445698.671693001
2439986.29725955	8359349.534338137
2485394.8574297987	8271393.424844276
2531648.478631358	8192967.159559505
2578762.8875937983	8128329.2494325545
2626754.1037238385	8062488.416799599
2675638.4445520453	7995422.275068142
2725432.531281028	7927108.021027358
2776153.294436804	7857522.427094789
2827817.979625338	7786641.833418746
2880444.1533962977	7714442.139833617
2934049.7092157872	7640898.79766567
2988652.8735503824	7565986.8013861375
3044272.212064306	7489680.68010911
3100926.6359319235	7411954.488931192
3158635.408267819	7332781.8001098605
3217418.1506763715	7274206.7924022395
3277294.849923382	7216026.710356449
3338285.8647317644	7156763.88708409
3400411.9327037027	7096398.172586723
3463694.1773717343	7034909.041870959
3528154.115380883	6972275.587969838
3593813.6638046256	6908476.514834161
3660695.147596906	6843490.130091629
3728821.30718283	6777294.337671231
3798215.306190736	6709866.630290265
3868900.7393279755	6641184.081801718
3940901.6404034477	6571223.339399055
4014242.490499326	6509365.21508448
4088948.226294856	6457956.894575332
4165044.248545185	6405591.856474066
4242556.430717777	6352252.296103516
4321511.127789762	6297920.077438425
4401935.185208879	6242576.72693902
4483855.948021182	6186203.427269831
4567301.270168747	6128781.010901532
4652299.523960189	6070289.953593857
4738879.609717651	6010710.367757085
4827070.965603188	5950021.99569006
4916903.577628021	5888204.202692393
5008407.989848212	5825235.970048359
5101615.314749834	5779117.39973001
5196557.243827658	5732849.18662713
5293266.058360566	5685719.914205588
5391774.640387494	5637713.558004963
5492116.483887789	5588813.795346866
5594325.706169377	5539003.9997851215
5698437.059469136	5488267.235452537
5804485.942768984	5436586.251302555
5912508.413831869	5383943.475243725
6022541.201461928	5330321.008164945
6134621.717992506	5275700.617849652
6248788.072006888	5220063.7327766055
6365079.081295578	5171285.6975123165
6483534.286054714	5130405.950923485
6604193.962330305	5088765.425294693
6727099.135712337	5046349.962398569
6852291.595284058	5003145.140520704
6979813.907830667	4959136.269556128
7109709.432312424	4914308.38601454
7242022.334607315	4868646.2479325
7376797.602527731	4822134.329691073
7514081.061116962	4774756.816736892
7653919.388230155	4726497.600205061
7796360.130405221	4677340.27144199
7941451.71902934	4627268.116426213
8089243.486805938	4590966.071235571
8239785.684528511	4554176.2609740095
8393129.498166373	4516701.786083469
8549327.066268368	4478529.9048387185
8708431.497690724	4439647.638388822
8870496.889654404	4400041.766344246
9035578.34613892	4359698.822281745
9203731.99661823	4318605.089165645
9375015.015145289	4276746.594683913
9549485.639791965	4234109.106497403
9727203.192450536	4190678.1274007186
9908228.099003788	4146438.8903930048
10092621.909870485	4107983.251291466
10280447.320933098	4075480.0381849813
10471768.194855202	4042371.9347519698
10666649.582795387	4008647.683880527
10865157.746525373	3974295.818961985
11067360.180959744	3939304.659992129
11273325.63710487	3903662.309599894
11483124.145435112	3867356.6490021
11696827.039703846	3830375.3338829563
11914506.981197748	3792705.790196853
12136237.983442418	3754335.2098930497
12362095.43736769	3715250.546560813
12592156.13694151	3675585.1051573497
12826498.3052806	3646869.7752132695
13065201.621247198	3617620.048092846
13308347.24654076	3587825.9785736916
13556017.853293689	3557477.4363511493
13808297.652180923	3526564.1025938606
14065272.421052365	3495075.4664352597
14327029.534098294	3463000.8213997683
14593657.991557576	3430329.26176247
14865248.449978571	3397049.6788410638
15141893.25304352	3363150.7572187707
15423686.462966274	3328620.970896982
15710723.89247449	3293448.579376296
16003103.137387017	3263136.4635059335
16300923.60979741	3237296.0605186336
16604286.571875297	3210974.7632348416
16913295.17029647	3184163.6221298724
17228054.471313924	3156853.5211268635
17548671.49648152	3129035.174497209
17875255.259042356	3100699.1237033214
18207916.800994623	3071835.7341826116
18546769.230846975	3042435.1920716427
18891927.762076642	3012487.500869312
19243509.75230332	2981982.478037922
19601634.743191857	2950909.7515410325
19966424.501097932	2919608.343717377
20338003.0584698	2896780.346695027
20716496.75602067	2873527.5167637705
21102034.285685964	2849841.947710883
21494746.734379806	2825715.586187682
21894767.628566206	2801140.2289712904
