# Frequency (Hz)	Imaginary Part (Ohm/m)
1000.0	299076960.79440993
1018.6101701559753	297812169.9305773
1037.566678745186	296523841.0935569
1056.875971184804	295211536.23766273
1076.544612842316	293874809.16510385
1096.5792912678098	292513205.37427264
1116.9868184678226	291126261.905209
1137.7741332214914	289713507.18218935
1158.9483034398106	288274460.8533857
1180.5165285688056	286808633.6275405
1202.4861420374123	285315527.10760325
1224.8646137509306	283794633.6212689
1247.6595526308697	282245436.04836476
1270.8787092020582	280939615.7573586
1294.529978227916	279870821.67901313
1318.6214013947485	278782137.16100806
1343.1611700460153	277673192.0388767
1368.1576279674719	276543609.2593288
1393.6192742241421	275393004.75204825
1419.5547660501015	274220987.299105
1445.9729217920196	273027158.4019367
1472.8827239075017	271811112.145855
1500.2933220192183	270572435.06203
1528.2140360258693	269310705.9869068
1556.654359271062	268025495.91900477
1585.6239617711371	266724908.7478108
1615.1326935030913	265736300.08786744
1645.1905877536624	264729293.25254488
1675.8078645307671	263703545.84866878
1706.994934038408	262658709.11106944
1738.7624002162504	261594427.7839982
1771.1210643450886	260510340.0003363
1804.0819287193829	259406077.15855646
1837.6562003881704	258281263.7973942
1871.8552949655793	257135517.46818691
1906.690840512252	255968448.60483757
1942.1746814890264	254779660.3913575
1978.3188827841643	253568748.6269452
2015.1357338155585	252453222.26979342
2052.6377527092523	251419342.04890433
2090.83769055575	250366221.1411835
2129.748535745521	249293501.47417518
2169.3835183851843	248200818.3116342
2209.756114795903	247087800.12951174
2250.880052095462	245954068.48963335
2292.7693128656488	244799237.9110256
2335.438139906479	243622915.73884857
2378.9010410788933	242424702.01088914
2423.1727942376006	241204189.3215691
2468.2684522556924	239960962.6834233
2514.2033481427966	238702337.98036498
2560.9931002584594	237568686.99103794
2608.6536176225477	236413938.56390214
2657.201105324507	235237700.0720499
2706.652070033241	234039571.58172035
2757.0233256095826	232819145.71631703
2808.3319988231724	231576007.51789576
2860.595535175742	230309734.30607453
2913.8317048327885	229019895.5343173
2968.058608665602	227706052.64354396
3023.2946844057765	226367758.9130151
3079.5587129142264	225004559.30844235
3136.8698245668766	223615990.327272
3195.2475057592137	222289223.36747238
3254.711605531848	221006563.49084952
3315.282342319423	219700033.09567046
3376.9803108250912	218369187.94752312
3439.8264890229248	217013575.54471752
3503.8422452906757	215632734.96443015
3569.0493456752297	214226196.70598537
3635.4699612933177	212793482.53122005
3703.126675869927	211334105.30187744
3772.0424934169973	209847568.81397504
3842.240846055061	208333367.62908965
3913.745601980384	206790986.90250322
3986.581073580439	205236328.0741565
4060.7720257003652	203857201.48984402
4136.343684063274	202452409.12513095
4213.321743847289	201021473.33547667
4291.732378422157	199563907.58729476
4371.602248248502	198079216.29252562
4452.958509942656	196566894.64013165
4535.828825510186	195026428.42445615
4620.241371751313	193457293.87038732
4706.224849841282	191858957.45526972
4793.808495089107	190230875.72750032
4883.02208687788	188572495.12174916
4973.895958790063	186883251.77074173
5066.461008921268	185354122.81866026
5160.7487103859075	183932275.51814246
5256.791122018419	182483967.39742622
5354.620899273607	181008706.01614505
5454.271305329837	179505989.7695337
5555.7762223988775	177975307.71787688
5659.170163246243	176416139.41278398
5764.488282925873	174827954.72023153
5871.766390733255	173210213.64031148
5981.040962380944	171562366.12362581
6092.349152400711	169883851.88426358
6205.7288067765	168174100.20929763
6321.218475812449	166475075.02065817
6438.857427240419	165130888.7506412
6558.685659571435	163761686.9454179
6680.743915695614	162367004.06162164
6805.073696735207	160946365.89204425
6931.7172761554075	159499289.4044009
7060.717714137772	158025282.57709387
7192.118872221193	156523844.2319195
7325.9654282152305	154994463.8636628
7462.302891391108	153436621.46651968
7601.17761795533	151849787.35728943
7742.63682681127	150233421.99527717
7886.728615614156	148586975.79884353
8033.501977124734	147202855.2064134
8183.006815867389	145980038.0163583
8335.293965098195	144734463.99032652
8490.415204088747	143465709.6197285
8648.423275731726	142173343.5144075
8809.37190447399	140856926.25596267
8973.31581458352	139516010.24834192
9140.310748756232	138150139.56565443
9310.413487069076	136758849.79715112
9483.681866285928	135341667.88931963
9660.174799522645	133898111.98504151
9839.952296278227	132427691.25975512
10023.075482838643	130987758.23031957
10209.606623060476	129929750.35985361
10399.609139541202	128852052.78289205
10593.147635183701	127754299.07064651
10790.287915161836	126636115.97502676
10991.097009294961	125497123.30173199
11195.643194838794	124336933.78098065
11403.996019700331	123155152.9358351
11616.226326085018	121951378.9480743
11832.40627458378	120725202.52157195
12052.609368708414	119476206.74313113
12276.910479883603	118203966.94072929
12505.385872903913	116908050.53912571
12738.113231864785	115849145.29386944
12975.171686575868	114920393.06784499
13216.641839466038	113974356.60486151
13462.60579298911	113010714.24232803
13713.147177539457	112029138.3314584
13968.351179887397	111029295.12586649
14228.30457214352	110010844.66808921
14493.095741262152	108973440.67399727
14762.81471909391	107916730.41505466
15037.553212997384	106840354.59838772
15317.404637020798	105743947.2446208
15602.46414366368	104627135.56344001
15892.828656229764	103541268.56875996
16188.596901781992	102731040.70224623
16489.86944471065	101905734.35727163
16796.74872092653	101065068.92078629
17109.339072690134	100208758.55748367
17427.746784089173	99336512.11261368
17752.08011717636	98448033.01298662
18082.44934877952	97543019.16613555
18418.96680799711	96621162.85760109
18761.746914391195	95682150.64630543
19110.90621689136	94725663.25797904
19466.563433422634	93751375.4766037
19828.839491270715	92758956.03383623
20197.857568198782	91944641.39427309
20573.743134329117	91216240.64296024
20956.623994804308	90474284.22972374
21346.630333242454	89718519.88138849
21743.8947560008	88948690.62993298
22148.552337263594	88164534.72511685
22560.74066496859	87365785.54548328
22980.599887588487	86552171.50770478
23408.272761782944	85723415.97424182
23843.904700937204	84879237.15928353
24287.643824604504	84019348.03293678
24739.641008868115	83143456.22363345
25200.049937640895	82296924.14318821
25669.02715491952	81651888.98817733
26146.73211801092	80994849.6191752
26633.327251749808	80325582.63571677
27128.978003724646	79643860.47981639
27633.85290053167	78949451.35859562
28148.123605075813	78242119.16547099
28671.9649749377	77521623.3998756
29205.555121827452	76787719.08548579
29749.075472144435	76040156.68692692
30302.71082866393	75278682.02492882
30866.649433372746	74503036.18990129
31441.083031472648	73712955.45390324
32026.206936576502	73069770.73825388
32622.220097116733	72488750.54315221
33229.325163989684	71896917.4633558
33847.72855945983	71294070.26924029
34477.64054734464	70680003.9862643
35119.275304507275	70054509.8252751
35772.850993678774	69417375.11151823
36438.58983763541	68768383.21232623
37116.71819475767	68107313.46346025
37807.46663599349	67433941.094083
38511.07002325569	66748037.15033329
39227.76758927724	66049368.41747967
39957.803018952654	65379573.919280834
40701.42453219439	64866373.72287008
41458.88496832911	64343622.78348009
42230.44187206672	63811143.36015886
43016.357581068	63268754.404165015
43816.89931514195	62716271.49740946
44632.33926710398	62153506.78975091
45462.95469532399	61580268.93512506
46309.02801799737	60996363.02648478
47170.84690917022	60401590.52952956
48048.70439655134	59795749.21520197
48942.898961145314	59178633.09092723
49853.73463873893	58550032.33057374
50781.5211232767	58043342.05684165
51726.57387216025	57581633.5649284
52689.21421350677	57111332.59941825
53669.76945540476	56632279.25291543
54668.57299720181	56144310.6421204
55685.96444286409	55647260.8524477
56722.28971644549	55140960.88161315
57777.90117970507	54625238.582171455
58853.15775191451	54099918.60298392
59948.42503189409	53564822.32959737
61064.07542232036	53019767.82351327
62200.48825634718	52464569.7603266
63358.04992658254	51936463.120167896
64537.15401646702	51528627.28197635
65738.20143409586	51113201.549440354
66961.60054853215	50690044.67333469
68207.76732865692	50259012.77576199
69477.1254846024	49819959.301232845
70770.10661181889	49372734.96683514
72087.15033782135	48917187.711476415
73428.70447166757	48453162.64418136
74795.2251562183	47980501.99142726
76187.17702322999	47499045.04349943
77605.0333513357	47008628.09984788
79049.2762269642	46509084.413427606
80520.3967082547	46110096.71398816
82018.89499202212	45743145.7470278
83545.28058382872	45369365.76013346
85100.07247122246	44988629.6640821
86683.79930019774	44600808.00449872
88296.99955494083	44205768.9178403
89940.22174092053	43803378.08656088
91614.0245713852	43393498.69344218
93318.97715733238	42975991.37507412
95055.6592010119	42550714.17446986
96824.66119303113	42117522.4927989
98626.5846131283	41676269.04022184
100462.04213468131	41259845.74044544
102331.6578330245	40935717.42744
104236.06739764012	40605557.03137717
106175.9183482999	40269252.29416484
108151.87025522892	39926688.86856868
110164.59496336569	39577750.27933301
112214.77682079803	39222317.883577675
114303.11291144787	38860270.83045839
116430.31329208757	38491486.02007608
118597.10123376705	38115838.06162158
120804.21346773289	37733199.23074154
123052.40043592616	37343439.426110536
125342.42654613995	36946426.125195384
127675.07043192645	36632272.7745294
130051.12521734099	36340643.28356945
132471.39878661174	36043586.51816027
134936.71405883064	35741001.47580084
137447.90926775365	35432785.27431645
140005.8382468096	35118833.11687761
142611.37071941298	34799038.25636796
145265.39259467812	34473291.95908925
147968.80626863963	34141483.46779051
150722.53093107554	33803499.9640095
153527.5028780421	33459226.529713213
156384.6758302248	33108546.10822445
159295.0212572123	32780219.18609344
162259.5287078087	32522625.149119906
165279.2061464897	32260237.243287105
168355.08029612005	31992966.25387994
171488.19698705408	31720721.30588209
174679.62151272458	31443409.833077922
177930.43899185772	31160937.546578676
181241.75473742394	30873208.402763296
184614.69463245457	30580124.570622742
188050.40551285836	30281586.398496017
191550.05555735278	29977492.380187996
195114.83468466165	29667739.12045585
198745.9549580986	29352221.299853686
202444.65099768018	29104890.77396521
206212.18039991445	28873126.512954388
210049.82416539153	28637049.079610102
213958.88713434216	28396578.2050613
217940.6984302958	28151632.126619563
221996.61191199525	27902127.559979033
226128.00663372796	27647979.67089858
230336.28731421314	27389102.04635758
234622.88481422624	27125406.665174305
238989.25662310526	26856803.868077833
243436.8873543108	26583202.32722308
247967.289250216	26304509.015138023
252582.00269627848	26045661.65303897
257282.5967447932	25840947.538685534
262070.66964838552	25632423.659830626
266947.8494034318	25420019.116108686
271915.7943036019	25203661.687686134
276976.1935036891	24983277.81070615
282130.76759394706	24758792.552275937
287381.2691851069	24530129.584988806
292729.4835042813	24297211.160972144
298177.22900196735	24059958.08545201
303726.35797033116	23818289.68982645
309378.7571730137	23572123.80423698
315136.34848664823	23321376.72963006
321001.08955431683	23126674.477601342
326974.9744511768	22942488.716758367
333060.03436245886	22754875.227565818
339258.33827409917	22563770.21941584
345571.9936762143	22369108.71454651
352003.14727966755	22170824.52594878
358553.9857459817	21968850.234861974
365226.7364308176	21763117.167850923
372023.6681413066	21553555.37345609
378947.09190746717	21340093.59840935
385999.3617679763	21122659.26340725
393182.87557057705	20901178.438432954
400500.07578736113	20697122.483781222
407953.4503452449	20534434.507903874
415545.53347188793	20368718.881113097
423278.90655735444	20199919.258310273
431156.19903182285	20027978.24580479
439180.0892596086	19852837.381799806
447353.3054498463	19674437.11651443
455678.6265841069	19492716.791936196
464158.8833612772	19307614.621196806
472796.9591600391	19119067.667563673
481595.7910192351	18927011.823041055
490558.37063650455	18731381.786572427
499687.7453854889	18532111.041837472
508987.01935196744	18378853.11190957
518459.3543892913	18232479.70378679
528107.971193433	18083382.26163256
537936.1503980698	17931510.090710018
547947.2336900292	17776811.55284463
558144.6249454955	17619234.048866723
568531.7913873753	17458724.000726994
579112.2647641759	17295226.833279666
589889.6425508494	17128686.955726117
600867.5891719693	16959047.742713526
612049.837247669	16786251.51508168
623440.1888627864	16610239.520251257
635042.5168595962	16449388.219355483
646860.7661546321	16320099.571855927
658898.9550799957	16188404.840627152
671161.1767496273	16054259.248041593
683651.6004510239	15917617.183152314
696374.4730628222	15778432.186184997
709334.1204987989	15636656.932740962
722534.9491787221	15492243.217706406
735981.4475265756	15345141.938862236
749678.1874966876	15195303.080188582
763629.8261282241	15042675.694859046
777841.1071286482	14887207.88791807
792316.8624866261	14728846.798636127
807062.014114949	14608222.614457116
822081.5755240541	14491899.46092946
837380.653526649	14373411.513721593
852964.4499741016	14252718.48565475
868838.2635251193	14129779.339798933
885007.4914473438	14004552.275519922
901477.6314524917	13876994.714266544
918254.2835656282	13747063.28509356
935343.1520292377	13614713.809915058
952750.04724273	13479901.288483417
970480.8877380306	13342579.88308879
988541.7021919574	13202702.90297371
1006938.6314760271	13075917.1273926
1025677.9307444209	12973171.445285555
1044765.9715608052	12868513.648551699
1064209.2440647245	12761908.152412485
1084014.359178331	12653318.709850559
1104188.0508541602	12542708.399285413
1124737.1783647507	12430039.612019643
1145668.7286348727	12315274.039451579
1166989.8186171474	12198372.660049988
1188707.6977119034	12079295.726086264
1210829.7502320395	11958002.750119824
1233363.4979137748	11834452.491231922
1256316.6024741214	11708602.941003293
1279696.8682159416	11613672.524253378
1303512.244681509	11521230.647982255
1327770.8293554292	11427068.41266419
1352480.870417874	11331153.802124588
1377650.769549055	11233454.20436239
1403289.084785873	11133936.40046168
1429404.533431761	11032566.553296825
1456005.9950206485	10929310.196027549
1483102.5143361029	10824132.220379805
1510703.3044866556	10716996.864708584
1538817.7500383463	10607867.70183861
1567455.410205595	10496707.62667865
1596626.022101425	10396779.57370771
1626339.5040481905	10315127.778660951
1656605.9589499151	10231956.429814823
1687435.6777273756	10147237.248014577
1718839.1428171457	10060941.427825551
1750827.0317357269	9973039.627739051
1783410.2207100063	9883501.960195942
1816599.7883753285	9792297.981424468
1850407.019542302	9699396.681089163
1884843.4090337954	9604766.471746909
1919920.6655932867	9508375.178106887
1955650.715865947	9410190.026090693
1992045.7084538713	9310177.631688666
2029118.018046678	9235475.008926438
2066880.2496290822	9162011.694755923
2105345.242766708	9087181.215808464
2144526.0759716653	9010958.128914956
2184436.0711494284	8933316.517404528
2225088.7981283693	8854229.98229272
2266498.079273693	8773671.63330543
2308677.994187172	8691614.079735994
2351642.884494346	8608029.421132067
2395407.3587208795	8522889.237809073
2439986.29725955	8436164.581187338
2485394.8574297987	8347825.96394915
2531648.478631358	8269071.467196954
2578762.8875937983	8204183.050244685
2626754.1037238385	8138087.048811766
2675638.4445520453	8070760.989545558
2725432.531281028	8002181.980860475
2776153.294436804	7932326.705154627
2827817.979625338	7861171.410881616
2880444.1533962977	7788691.904474671
2934049.7092157872	7714863.5421206765
2988652.8735503824	7639661.221380941
3044272.212064306	7563059.372656104
3100926.6359319235	7485031.950492253
3158635.408267819	7405552.424725084
3217418.1506763715	7346772.997695472
3277294.849923382	7288391.967252982
3338285.8647317644	7228924.455900069
3400411.9327037027	7168350.2440421395
3463694.1773717343	7106648.735794456
3528154.115380883	7043798.95197941
3593813.6638046256	6979779.5229933
3660695.147596906	6914568.681540462
3728821.30718283	6848144.255232187
3798215.306190736	6780483.659047789
3868900.7393279755	6711563.88765555
3940901.6404034477	6641361.507590591
4014242.490499326	6579298.304571983
4088948.226294856	6527731.733068981
4165044.248545185	6475205.498895935
4242556.430717777	6421701.742567282
4321511.127789762	6367202.27222937
4401935.185208879	6311688.557475051
4483855.948021182	6255141.723043178
4567301.270168747	6197542.542400734
4652299.523960189	6138871.431205694
4738879.609717651	6079108.440648074
4827070.965603188	6018233.250667141
4916903.577628021	5956225.163042399
5008407.989848212	5893063.0943559
5101615.314749834	5846817.185848092
5196557.243827658	5800422.021406256
5293266.058360566	5753163.435059738
5391774.640387494	5705025.358379992
5492116.483887789	5655991.423902242
5594325.706169377	5606044.959560451
5698437.059469136	5555168.983018569
5804485.942768984	5503346.195896386
5912508.413831869	5450558.977887914
6022541.201461928	5396789.380770232
6134621.717992506	5342019.122300977
6248788.072006888	5286229.580002123
6365079.081295578	5237323.414174112
6483534.286054714	5196343.681116537
6604193.962330305	5154601.308253804
6727099.135712337	5112082.102729388
6852291.595284058	5068771.607555264
6979813.907830667	5024655.096696406
7109709.432312424	4979717.570063786
7242022.334607315	4933943.748414134
7376797.602527731	4887318.068154898
7514081.061116962	4839824.6760524
7653919.388230155	4791447.4238415845
7796360.130405221	4742169.862735458
7941451.71902934	4691975.237832263
8089243.486805938	4655593.865161599
8239785.684528511	4618723.831397215
8393129.498166373	4581167.640030816
8549327.066268368	4542912.521552686
8708431.497690724	4503945.468810332
8870496.889654404	4464253.23258597
9035578.34613892	4423822.317091603
9203731.99661823	4382638.975380318
9375015.015145289	4340689.2046722
9549485.639791965	4297958.741593198
9727203.192450536	4254433.0573254535
9908228.099003788	4210097.352667331
10092621.909870485	4171561.642251382
10280447.320933098	4138995.2277993057
10471768.194855202	4105822.7468329067
10666649.582795387	4072032.920351227
10865157.746525373	4037614.259449182
11067360.180959744	4002555.061411205
11273325.63710487	3966843.405732214
11483124.145435112	3930467.150064485
11696827.039703846	3893413.926089142
11914506.981197748	3855671.1353107905
12136237.983442418	3817225.944773888
12362095.43736769	3778065.28269942
12592156.13694151	3738322.787981934
12826498.3052806	3709557.6566601684
13065201.621247198	3680257.2013499467
13308347.24654076	3650411.4595807497
13556017.853293689	3620010.2834788007
13808297.652180923	3589043.336316652
14065272.421052365	3557500.0889986055
14327029.534098294	3525369.816480697
14593657.991557576	3492641.59412407
14865248.449978571	3459304.2939804867
15141893.25304352	3425346.58100869
15423686.462966274	3390756.909220381
15710723.89247449	3355523.517754452
16003103.137387017	3325161.330171757
16300923.60979741	3299280.939262235
16604286.571875297	3272918.909874184
16913295.17029647	3246066.2786335647
17228054.471313924	3218713.915356422
17548671.49648152	3190852.519944521
17875255.259042356	3162472.619223224
18207916.800994623	3133564.563720494
18546769.230846975	3104118.52438598
18891927.762076642	3074124.489249031
19243509.75230332	3043572.260014516
19601634.743191857	3012451.448595305
19966424.501097932	2981101.742790159
20338003.0584698	2958242.210979292
20716496.75602067	2934957.2593917386
21102034.285685964	2911238.9708930645
21494746.734379806	2887079.2810096247
21894767.628566206	2862469.975186539
