# Frequency (Hz)	Real Part (Ohm/m)
1000.0	3118865.9236514145
1018.6101701559753	3126792.6864869064
1037.566678745186	3134866.9677275526
1056.875971184804	3143091.512715975
1076.5446128423157	3151469.117886087
1096.5792912678098	3160002.631713914
1116.9868184678226	3168694.9556861054
1137.7741332214914	3177549.04528647
1158.9483034398106	3186567.911000874
1180.5165285688054	3195754.619340837
1202.4861420374123	3205112.2938861805
1224.8646137509306	3214644.1163470754
1247.6595526308697	3224353.327645866
1270.8787092020582	3232648.056153298
1294.529978227916	3239565.7383565945
1318.6214013947485	3246612.1598027796
1343.1611700460153	3253789.7163510695
1368.1576279674719	3261100.848448027
1393.619274224142	3268548.041957341
1419.5547660501015	3276133.8290050486
1445.9729217920194	3283860.7888404806
1472.882723907502	3291731.548713238
1500.2933220192183	3299748.7847664854
1528.2140360258693	3307915.2229468627
1556.654359271062	3316233.6399313468
1585.6239617711371	3324634.3490995807
1615.132693503091	3330337.090190554
1645.1905877536624	3336145.9602635866
1675.807864530767	3342062.934397091
1706.9949340384078	3348090.0244260295
1738.7624002162504	3354229.279625952
1771.1210643450886	3360482.7874097754
1804.0819287193826	3366852.674037527
1837.6562003881704	3373341.105339296
1871.8552949655793	3379950.2874516365
1906.690840512252	3386682.467567679
1942.1746814890264	3393539.9347012024
1978.3188827841643	3400525.0204649186
2015.1357338155585	3406203.032442596
2052.6377527092523	3410738.715679351
2090.8376905557498	3415358.8087529144
2129.748535745521	3420064.882544714
2169.3835183851843	3424858.537170545
2209.756114795903	3429741.402524634
2250.880052095462	3434715.138833808
2292.7693128656488	3439781.4372220095
2335.438139906479	3444942.020285274
2378.9010410788933	3450198.642677451
2423.1727942376006	3455553.091706793
2468.2684522556924	3461007.1879436607
2514.2033481427966	3466443.7222038396
2560.9931002584594	3469698.2416568203
2608.6536176225477	3473013.328270597
2657.2011053245064	3476390.1092103384
2706.652070033241	3479829.7326179473
2757.0233256095826	3483333.3680024436
2808.3319988231724	3486902.206637611
2860.5955351757416	3490537.4619670375
2913.831704832789	3494240.3700167057
2968.0586086656026	3498012.1898152498
3023.2946844057765	3501854.203822042
3079.5587129142264	3505767.718363243
3136.8698245668766	3509754.0640759626
3195.2475057592133	3512649.248874355
3254.711605531848	3514683.5387294316
3315.282342319423	3516755.6870648586
3376.9803108250912	3518866.3984333957
3439.8264890229243	3521016.390499652
3503.8422452906757	3523206.3942840947
3569.0493456752292	3525437.154411608
3635.4699612933177	3527709.429364672
3703.126675869927	3530023.991741253
3772.0424934169973	3532381.6285174997
3842.240846055061	3534783.141315318
3913.745601980384	3537229.3466749345
3986.581073580439	3539593.016917385
4060.7720257003657	3540406.6267199
4136.343684063274	3541235.3779392806
4213.321743847289	3542079.5523598716
4291.732378422157	3542939.43701007
4371.602248248501	3543815.3242599224
4452.958509942655	3544707.511920533
4535.828825510186	3545616.303345319
4620.241371751313	3546542.007533156
4706.224849841281	3547484.9392334423
4793.808495089106	3548445.419053117
4883.02208687788	3549423.773565667
4973.895958790063	3550420.335422168
5066.461008921268	3550654.5709865047
5160.7487103859075	3550339.8166274736
5256.791122018419	3550019.204636264
5354.620899273607	3549692.6260013436
5454.271305329836	3549359.969682459
5555.7762223988775	3549021.122572874
5659.170163246242	3548675.9694609246
5764.488282925873	3548324.3929908318
5871.766390733255	3547966.273622807
5981.040962380945	3547601.4895924083
6092.349152400711	3547229.9168691337
6205.7288067765	3546851.429114253
6321.218475812449	3546374.0974042793
6438.8574272404185	3545054.018858139
6558.685659571435	3543709.3734256364
6680.743915695614	3542339.7039128356
6805.073696735206	3540944.5446173428
6931.717276155407	3539523.4211699674
7060.717714137772	3538075.8503734237
7192.118872221193	3536601.340038043
7325.96542821523	3535099.388814425
7462.302891391108	3533569.4860229683
7601.17761795533	3532011.1114802416
7742.636826811269	3530423.735322107
7886.728615614156	3528806.817823568
8033.501977124735	3526849.1983709764
8183.00681586739	3524656.8188992557
8335.293965098195	3522423.638872521
8490.415204088747	3520148.898985499
8648.423275731726	3517831.8258021194
8809.37190447399	3515471.6314925337
8973.31581458352	3513067.5135652446
9140.310748756232	3510618.6545942533
9310.413487069076	3508124.2219411246
9483.681866285926	3505583.367471878
9660.174799522645	3502995.2272686176
9839.952296278227	3500358.921335787
10023.075482838643	3497661.2329728752
10209.606623060476	3494826.2981564435
10399.609139541202	3491938.6047206973
10593.1476351837	3488997.170818753
10790.287915161836	3486000.996331391
10991.097009294961	3482949.0625270023
11195.643194838794	3479840.33171521
11403.99601970033	3476673.74689404
11616.22632608502	3473448.231390535
11832.40627458378	3470162.6884946697
12052.609368708414	3466816.0010864567
12276.910479883603	3463407.031256118
12505.385872903913	3459934.6199171804
12738.113231864783	3456579.299373462
12975.171686575868	3453265.8193144198
13216.641839466038	3449890.674827673
13462.60579298911	3446452.718327725
13713.147177539455	3442950.780872324
13968.351179887397	3439383.6717650034
14228.30457214352	3435750.1781502306
14493.09574126215	3432049.064601026
14762.81471909391	3428279.072698903
15037.553212997384	3424438.9206059957
15317.404637020798	3420527.3026292156
15602.46414366368	3416542.888776302
15892.828656229764	3412578.0553906783
16188.596901781993	3409075.503116014
16489.86944471065	3405507.7677475363
16796.74872092653	3401873.6362167816
17109.339072690134	3398171.87287987
17427.746784089173	3394401.2190973815
17752.08011717636	3390560.3928064005
18082.44934877952	3386648.088084605
18418.96680799711	3382662.9747062367
18761.746914391195	3378603.6976898047
19110.90621689136	3374468.8768373867
19466.56343342263	3370257.106265341
19828.83949127071	3365966.953926292
20197.857568198782	3362201.949478285
20573.743134329114	3358677.932274402
20956.623994804308	3355088.332510722
21346.630333242454	3351431.9296846464
21743.8947560008	3347707.48057982
22148.55233726359	3343913.718843416
22560.74066496859	3340049.354555566
22980.599887588487	3336113.073790774
23408.272761782944	3332103.5381711675
23843.904700937208	3328019.3844114337
24287.643824604504	3323859.2238552887
24739.64100886812	3319621.6420033174
25200.049937640895	3315501.714050599
25669.027154919517	3312240.1353917248
26146.732118010917	3308917.858199032
26633.327251749808	3305533.752862478
27128.978003724646	3302086.668749785
27633.852900531667	3298575.433815214
28148.123605075813	3294998.854201051
28671.964974937695	3291355.713831693
29205.55512182745	3287644.774000159
29749.075472144435	3283864.7729469216
30302.71082866393	3280014.425430895
30866.649433372742	3276092.4222924337
31441.08303147265	3272097.430008213
32026.206936576502	3268896.653510288
32622.220097116733	3266034.766109209
33229.325163989684	3263119.618496631
33847.72855945983	3260150.2194909514
34477.640547344636	3257125.5594645157
35119.275304507275	3254044.6100003235
35772.850993678774	3250906.3235423607
36438.58983763541	3247709.6330394186
37116.71819475767	3244453.451582279
37807.466635993485	3241136.6720341626
38511.070023255685	3237758.166654288
39227.76758927723	3234316.7867144197
39957.803018952654	3231072.9771312415
40701.42453219439	3228824.9616836193
41458.88496832911	3226535.1102860044
42230.441872066716	3224202.644364248
43016.35758106799	3221826.770854804
43816.89931514194	3219406.6819350803
44632.33926710397	3216941.554748768
45462.95469532399	3214430.5511260633
46309.02801799736	3211872.8172986764
47170.84690917023	3209267.4836095492
48048.704396551344	3206613.664217154
48942.89896114532	3203910.4567943024
49853.73463873894	3201156.9422213444
50781.5211232767	3199264.499502112
51726.57387216024	3197708.3727999143
52689.21421350677	3196123.286315005
53669.76945540476	3194508.7011009
54668.57299720181	3192864.0681812284
55685.96444286408	3191188.828363077
56722.28971644549	3189482.412046859
57777.90117970507	3187744.2390326387
58853.1577519145	3185973.718322863
59948.42503189408	3184170.2479214147
61064.07542232036	3182333.214628923
62200.48825634718	3180461.9938342767
63358.04992658254	3178817.275008378
64537.15401646702	3178050.413526112
65738.20143409586	3177269.2806211757
66961.60054853215	3176473.610699963
68207.76732865692	3175663.133226129
69477.1254846024	3174837.5726286005
70770.10661181889	3173996.6482078764
72087.15033782135	3173140.074040595
73428.70447166759	3172267.558882309
74795.22515621828	3171378.806068464
76187.17702322999	3170473.513413526
77605.0333513357	3169551.3731082394
79049.2762269642	3168612.071614963
80520.39670825469	3168379.453631172
82018.8949920221	3168402.64553539
83545.28058382872	3168426.269044892
85100.07247122246	3168450.332191925
86683.79930019773	3168474.8431582195
88296.99955494082	3168499.8102777665
89940.22174092053	3168525.2420396577
91614.0245713852	3168551.1470909645
93318.9771573324	3168577.534239684
95055.65920101192	3168604.412457731
96824.66119303115	3168631.7908839895
98626.5846131283	3168659.67882742
100462.04213468132	3168871.7107016807
102331.65783302448	3169643.669565327
104236.06739764012	3170429.9947147775
106175.9183482999	3171230.953509059
108151.87025522892	3172046.8182827886
110164.59496336569	3172877.866438782
112214.77682079801	3173724.380542367
114303.11291144785	3174586.648417458
116430.31329208757	3175464.9632444256
118597.10123376705	3176359.623659773
120804.21346773289	3177270.933857681
123052.40043592616	3178199.203693438
125342.42654613995	3179144.7487887884
127675.07043192645	3180450.9497894156
130051.12521734099	3181889.302760889
132471.39878661174	3183354.423725905
134936.71405883064	3184846.810841379
137447.90926775365	3186366.971535011
140005.8382468096	3187915.422677816
142611.37071941295	3189492.6907598674
145265.39259467812	3191099.3120693057
147968.80626863963	3192735.83287469
150722.53093107554	3194402.809610726
153527.5028780421	3196100.809067466
156384.67583022476	3197830.4085830203
159295.0212572123	3199629.282203296
162259.5287078087	3201560.3114242763
165279.2061464897	3203527.2774276338
168355.08029612005	3205530.849003005
171488.19698705408	3207571.707386315
174679.62151272455	3209650.546491401
177930.43899185772	3211768.0731459605
181241.75473742394	3213925.0073318705
184614.69463245454	3216122.0824299953
188050.40551285836	3218360.045469542
191550.0555573528	3220639.657382058
195114.83468466165	3222961.6932601547
198745.9549580986	3225326.942621052
202444.65099768018	3227589.650844883
206212.18039991445	3229854.554892672
210049.8241653915	3232161.609190177
213958.88713434213	3234511.598160718
217940.6984302958	3236905.320825864
221996.61191199525	3239343.5910771154
226128.00663372793	3241827.2379526296
230336.2873142131	3244357.105919103
234622.88481422624	3246934.055158906
238989.25662310526	3249558.9618625445
243436.8873543108	3252232.718526581
247967.289250216	3254956.234257091
252582.00269627848	3257582.7827700498
257282.59674479323	3259910.496798603
262070.66964838552	3262281.529981302
266947.8494034318	3264696.6884949747
271915.7943036019	3267156.7935195435
276976.1935036891	3269662.681517219
282130.76759394706	3272215.2045169235
287381.2691851069	3274815.2304039802
292729.4835042813	3277463.6432152046
298177.22900196735	3280161.3434394896
303726.3579703311	3282909.2483239775
309378.75717301364	3285708.29218594
315136.34848664823	3288559.4267304456
321001.08955431683	3290838.944991547
326974.97445117676	3293015.3954768497
333060.03436245886	3295232.3500760174
339258.33827409917	3297490.5625775056
345571.9936762143	3299790.800797894
352003.1472796675	3302133.8468429637
358553.9857459817	3304520.4973736154
365226.7364308175	3306951.5638767444
372023.6681413066	3309427.872941158
378947.09190746717	3311950.266538618
385999.36176797637	3314519.602310128
393182.87557057705	3317136.7538575344
400500.07578736113	3319482.6183385644
407953.45034524484	3321201.380363467
415545.53347188793	3322952.128842111
423278.90655735444	3324735.4590478423
431156.19903182285	3326551.9773321473
439180.0892596086	3328402.301330815
447353.3054498463	3330287.060173941
455678.6265841068	3332206.8946998394
464158.8833612772	3334162.457672938
472796.9591600391	3336154.4140057154
481595.79101923504	3338183.440984789
490558.37063650455	3340250.228501195
499687.7453854889	3342355.4792849575
508987.0193519675	3343547.595078796
518459.3543892913	3344575.409279331
528107.971193433	3345622.3512770263
537936.1503980698	3346688.777043442
547947.2336900292	3347775.0491748285
558144.6249454955	3348881.5370154167
568531.7913873753	3350008.616782994
579112.2647641759	3351156.671696824
589889.6425508494	3352326.0921079502
600867.5891719692	3353517.27563191
612049.837247669	3354730.627283938
623440.1888627863	3355966.559616671
635042.5168595961	3356808.310469136
646860.7661546321	3356883.7799260127
658898.9550799957	3356960.653882322
671161.1767496272	3357038.9584760405
683651.6004510238	3357118.7203315715
696374.4730628222	3357199.9665688053
709334.1204987989	3357282.724812339
722534.9491787221	3357367.0232008663
735981.4475265755	3357452.890396748
749678.1874966878	3357540.3555957563
763629.8261282243	3357629.4485370014
777841.1071286482	3357720.199513042
792316.8624866261	3357812.6393801877
807062.0141149492	3356906.6189937796
822081.575524054	3355822.813116095
837380.6535266489	3354718.8374266094
852964.4499741016	3353594.3165616966
868838.2635251193	3352448.8681721417
885007.4914473438	3351282.1027931534
901477.6314524917	3350093.623711929
918254.2835656281	3348883.026832777
935343.1520292377	3347649.900539714
952750.0472427299	3346393.825556513
970480.8877380306	3345114.3748041466
988541.7021919573	3343811.1132555716
1006938.6314760271	3342103.2957053985
1025677.9307444209	3339723.985592812
1044765.9715608053	3337300.396114175
1064209.2440647245	3334831.703222954
1084014.359178331	3332317.067536965
1104188.0508541602	3329755.634052979
1124737.1783647507	3327146.5318560116
1145668.7286348727	3324488.873823205
1166989.8186171474	3321781.7563221925
1188707.6977119034	3319024.258903853
1210829.7502320393	3316215.443989354
1233363.4979137746	3313354.35655136
1256316.6024741214	3310440.0237893127
1279696.8682159416	3306781.6503525237
1303512.2446815087	3302966.945114605
1327770.829355429	3299081.2475631144
1352480.8704178738	3295123.2365190154
1377650.769549055	3291091.5662159054
1403289.084785873	3286984.8658424425
1429404.533431761	3282801.7390762498
1456005.9950206485	3278540.7636091555
1483102.514336103	3274200.4906635857
1510703.3044866556	3269779.444499977
1538817.7500383465	3265276.1219149954
1567455.410205595	3260688.991730441
1596626.022101425	3255839.548708647
1626339.5040481905	3250631.979360691
1656605.9589499151	3245327.4962610696
1687435.6777273756	3239924.2958283755
1718839.1428171454	3234420.5409162412
1750827.0317357269	3228814.360188696
1783410.220710006	3223103.847483885
1816599.7883753285	3217287.0611659605
1850407.019542302	3211362.0234648986
1884843.4090337954	3205326.7198040397
1919920.6655932867	3199179.0981151075
1955650.715865947	3192917.0681404923
1992045.7084538713	3186538.500722524
2029118.0180466783	3180007.5255681877
2066880.2496290822	3173351.746314628
2105345.242766708	3166572.1018766384
2144526.0759716653	3159666.2871020627
2184436.0711494284	3152631.953939465
2225088.7981283693	3145466.710639778
2266498.079273693	3138168.120943074
2308677.994187172	3130733.703250217
2351642.884494346	3123160.929779085
2395407.358720879	3115447.2257051016
2439986.29725955	3107589.9682857683
2485394.857429798	3099586.485968904
2531648.478631358	3091612.9094448867
2578762.8875937983	3083735.161203006
2626754.1037238385	3075710.806725896
2675638.4445520453	3067537.117646576
2725432.531281028	3059211.314822688
2776153.2944368036	3050730.5673915613
2827817.979625338	3042091.991807694
2880444.1533962977	3033292.650862303
2934049.709215787	3024329.5526846587
2988652.873550383	3015199.6497248053
3044272.2120643063	3005899.8377173585
3100926.6359319235	2996426.9546260373
3158635.408267819	2986777.779568517
3217418.1506763715	2977800.764612034
3277294.849923382	2968713.993286743
3338285.8647317644	2959458.1156009184
3400411.9327037027	2950029.984456421
3463694.1773717343	2940426.394187069
3528154.1153808828	2930644.0794686973
3593813.6638046256	2920679.7142088967
3660695.147596906	2910529.9104161146
3728821.30718283	2900191.2170477016
3798215.306190736	2889660.118836509
3868900.7393279755	2878933.0350956777
3940901.6404034477	2868006.318501152
4014242.490499326	2857500.1708203666
4088948.226294856	2847568.1314314893
4165044.248545185	2837451.2550995867
4242556.430717777	2827146.101977702
4321511.127789762	2816649.1682027364
4401935.1852088785	2805956.884704099
4483855.948021181	2795065.6159902005
4567301.270168747	2783971.6589123188
4652299.523960189	2772671.241405516
4738879.609717651	2761160.5212060786
4827070.965603188	2749435.58454511
4916903.577628021	2737492.444817815
5008407.989848212	2725327.041227996
5101615.314749833	2714715.9886166593
5196557.243827657	2703977.4841986434
5293266.058360566	2693039.1343861865
5391774.640387494	2681897.220022497
5492116.483887789	2670547.9527366334
5594325.706169377	2658987.4736554353
5698437.0594691355	2647211.8520914516
5804485.942768984	2635217.084206469
5912508.413831869	2622999.0916501675
6022541.201461928	2610553.720173425
6134621.717992506	2597876.7382158493
6248788.072006888	2584963.8354669777
6365079.081295578	2572878.412703531
6483534.286054714	2561759.200348683
6604193.962330305	2550433.057559909
6727099.135712336	2538896.1333266264
6852291.595284057	2527144.504970285
6979813.907830667	2515174.1768106213
7109709.432312423	2502981.0788070858
7242022.334607315	2490561.0651749736
7376797.60252773	2477909.91297583
7514081.061116962	2465023.3206815906
7653919.388230155	2451896.906712025
7796360.130405221	2438526.2079449478
7941451.71902934	2424906.6781987096
8089243.486805938	2413602.772971853
8239785.684528512	2402121.3210287574
8393129.498166373	2390426.197311363
8549327.066268368	2378513.425351596
8708431.497690724	2366378.9546786244
8870496.889654402	2354018.659441678
9035578.34613892	2341428.3370071943
9203731.99661823	2328603.7065298846
9375015.01514529	2315540.4074972062
9549485.639791967	2302233.9982467294
9727203.192450536	2288679.9544559387
9908228.099003786	2274873.6676038997
10092621.909870483	2262238.9388757832
10280447.320933098	2250810.802165509
10471768.194855202	2239169.9858864914
10666649.582795387	2227312.5320357666
10865157.746525371	2215234.4089512634
11067360.180959744	2202931.5099409907
11273325.63710487	2190399.6518867267
11483124.14543511	2177634.573821703
11696827.039703846	2164631.9354818338
11914506.981197748	2151387.315829984
12136237.983442418	2137896.21155276
12362095.437367693	2124154.0355293467
12592156.13694151	2110194.0270154886
12826498.3052806	2098997.0114615955
13065201.621247198	2087591.6175430056
13308347.24654076	2075973.9673028928
13556017.853293689	2064140.1106150008
13808297.652180923	2052086.0238405454
14065272.421052363	2039807.6084601423
14327029.534098294	2027300.6896802646
14593657.991557576	2014561.015013765
14865248.449978571	2001584.252833991
15141893.25304352	1988365.9909019778
15423686.462966273	1974901.734866244
15710723.892474487	1961186.9067346614
16003103.137387017	1948876.7702202243
16300923.609797413	1937853.2873271815
16604286.571875297	1926624.655541788
16913295.17029647	1915187.057008249
17228054.471313924	1903536.602819826
17548671.49648152	1891669.33169656
17875255.259042352	1879581.2086384047
18207916.800994623	1867268.1235532705
18546769.230846975	1854725.8898595565
18891927.762076646	1841950.2430626666
19243509.75230332	1828936.8393050334
19601634.743191857	1815681.2538891628
19966424.501097932	1802298.7205808342
20338003.0584698	1791768.97841771
20716496.75602067	1781043.275961232
21102034.285685964	1770117.9663569944
