# Frequency (Hz)	Real Part (Ohm/m)
1000.0	9344938.874777025
1018.6101701559753	9382621.684281552
1037.566678745186	9421005.777282918
1056.875971184804	9460104.20478632
1076.5446128423157	9499930.260678392
1096.5792912678098	9540497.486247255
1116.9868184678226	9581819.674786711
1137.7741332214914	9623910.876286106
1158.9483034398106	9666785.40220747
1180.5165285688054	9710457.830351591
1202.4861420374123	9754943.009814596
1224.8646137509306	9800256.066036826
1247.6595526308697	9846412.405945644
1270.8787092020582	9886174.907037666
1294.529978227916	9919714.479371537
1318.6214013947485	9953878.228853494
1343.1611700460153	9988677.77152648
1368.1576279674719	10024124.939609963
1393.619274224142	10060231.785523022
1419.5547660501015	10097010.58598232
1445.9729217920194	10134473.846176302
1472.882723907502	10172634.304017087
1500.2933220192183	10211504.934471523
1528.2140360258693	10251098.953972783
1556.654359271062	10291429.824914124
1585.6239617711371	10332167.198806746
1615.132693503091	10360119.887586335
1645.1905877536624	10388592.780660426
1675.807864530767	10417595.559119467
1706.9949340384078	10447138.084220618
1738.7624002162504	10477230.40074074
1771.1210643450886	10507882.740391692
1804.0819287193826	10539105.52529923
1837.6562003881704	10570909.371546634
1871.8552949655793	10603305.092784321
1906.690840512252	10636303.703906564
1942.1746814890264	10669916.424796704
1978.3188827841643	10704154.684142014
2015.1357338155585	10731989.574822893
2052.6377527092523	10754228.22928415
2090.8376905557498	10776880.748888968
2129.748535745521	10799954.8357381
2169.3835183851843	10823458.33526968
2209.756114795903	10847399.23892681
2250.880052095462	10871785.686874684
2292.7693128656488	10896625.970768368
2335.438139906479	10921928.536572032
2378.9010410788933	10947701.98743069
2423.1727942376006	10973955.086595334
2468.2684522556924	11000696.760402553
2514.2033481427966	11027340.270718079
2560.9931002584594	11043053.846979612
2608.6536176225477	11059059.855569134
2657.2011053245064	11075363.738702025
2706.652070033241	11091971.039874218
2757.0233256095826	11108887.40574706
2808.3319988231724	11126118.588067217
2860.5955351757416	11143670.44562234
2913.831704832789	11161548.946233116
2968.0586086656026	11179760.168782393
3023.2946844057765	11198310.30528206
3079.5587129142264	11217205.662978401
3136.8698245668766	11236452.66649663
3195.2475057592133	11250165.399284132
3254.711605531848	11259507.862733364
3315.282342319423	11269024.191017056
3376.9803108250912	11278717.619789375
3439.8264890229243	11288591.444920534
3503.8422452906757	11298649.02361748
3569.0493456752292	11308893.775565336
3635.4699612933177	11319329.18409014
3703.126675869927	11329958.797343243
3772.0424934169973	11340786.229507677
3842.240846055061	11351815.162027044
3913.745601980384	11363049.344857235
3986.581073580439	11373845.503299356
4060.7720257003657	11376787.72459388
4136.343684063274	11379784.701127324
4213.321743847289	11382837.451904014
4291.732378422157	11385947.014892101
4371.602248248501	11389114.447376506
4452.958509942655	11392340.826318406
4535.828825510186	11395627.248721398
4620.241371751313	11398974.832004517
4706.224849841281	11402384.714382146
4793.808495089106	11405858.055251036
4883.02208687788	11409396.035584506
4973.895958790063	11412999.858333988
5066.461008921268	11412775.646822922
5160.7487103859075	11409787.079434307
5256.791122018419	11406742.894298067
5354.620899273607	11403642.056358453
5454.271305329836	11400483.51129716
5555.7762223988775	11397266.18517483
5659.170163246242	11393988.984065915
5764.488282925873	11390650.79368673
5871.766390733255	11387250.479016574
5981.040962380945	11383786.88391182
6092.349152400711	11380258.83071282
6205.7288067765	11376665.119843462
6321.218475812449	11372560.610613758
6438.8574272404185	11364347.397866923
6558.685659571435	11355981.335833348
6680.743915695614	11347459.579961795
6805.073696735206	11338779.23276344
6931.717276155407	11329937.342826711
7060.717714137772	11320930.903813764
7192.118872221193	11311756.853438282
7325.96542821523	11302412.072424294
7462.302891391108	11292893.383445565
7601.17761795533	11283197.55004528
7742.636826811269	11273321.275535611
7886.728615614156	11263261.201876814
8033.501977124735	11251627.665014219
8183.00681586739	11238892.494549654
8335.293965098195	11225920.320395779
8490.415204088747	11212706.731873605
8648.423275731726	11199247.236220663
8809.37190447399	11185537.257063411
8973.31581458352	11171572.132861206
9140.310748756232	11157347.115321347
9310.413487069076	11142857.3677846
9483.681866285926	11128097.963580674
9660.174799522645	11113063.884353114
9839.952296278227	11097750.018352993
10023.075482838643	11082132.971690813
10209.606623060476	11066096.79953642
10399.609139541202	11049762.191489585
10593.1476351837	11033123.593607571
10790.287915161836	11016175.348587815
10991.097009294961	10998911.693844393
11195.643194838794	10981326.759548685
11403.99601970033	10963414.566633549
11616.22632608502	10945169.024760399
11832.40627458378	10926583.930248402
12052.609368708414	10907652.963965168
12276.910479883603	10888369.689178187
12505.385872903913	10868727.54936626
12738.113231864783	10849863.991921987
12975.171686575868	10831305.984907778
13216.641839466038	10812402.610225277
13462.60579298911	10793147.440523412
13713.147177539455	10773533.928837014
13968.351179887397	10753555.406360773
14228.30457214352	10733205.08018179
14493.09574126215	10712476.030969884
14762.81471909391	10691361.21062497
15037.553212997384	10669853.439880628
15317.404637020798	10647945.405863058
15602.46414366368	10625629.659604635
15892.828656229764	10603417.899655363
16188.596901781993	10583762.679169592
16489.86944471065	10563741.671686128
16796.74872092653	10543348.069846703
17109.339072690134	10522574.939606952
17427.746784089173	10501415.217878768
17752.08011717636	10479861.710128767
18082.44934877952	10457907.087932086
18418.96680799711	10435543.886480609
18761.746914391195	10412764.502044892
19110.90621689136	10389561.189388776
19466.56343342263	10365926.059135942
19828.83949127071	10341851.075087454
20197.857568198782	10320535.73797161
20573.743134329114	10300472.950037284
20956.623994804308	10280036.790205698
21346.630333242454	10259220.309962312
21743.8947560008	10238016.431479545
22148.55233726359	10216417.945210252
22560.74066496859	10194417.507436374
22980.599887588487	10172007.637772016
23408.272761782944	10149180.716620034
23843.904700937208	10125928.982581276
24287.643824604504	10102244.529815635
24739.64100886812	10078119.305353973
25200.049937640895	10054563.527342416
25669.027154919517	10035415.012268282
26146.732118010917	10015910.140070386
26633.327251749808	9996042.278882015
27128.978003724646	9975804.673416296
27633.852900531667	9955190.442669312
28148.123605075813	9934192.577580484
28671.964974937695	9912803.938649448
29205.55512182745	9891017.253508497
29749.075472144435	9868825.114449937
30302.71082866393	9846219.975907378
30866.649433372742	9823194.151890136
31441.08303147265	9799739.813369958
32026.206936576502	9780299.755260948
32622.220097116733	9762539.718724657
33229.325163989684	9744449.164886445
33847.72855945983	9726021.942763086
34477.640547344636	9707251.786900513
35119.275304507275	9688132.315243483
35772.850993678774	9668657.026965622
36438.58983763541	9648819.300259074
37116.71819475767	9628612.390083011
37807.466635993485	9608029.425870243
38511.070023255685	9587063.409191161
39227.76758927723	9565707.21137419
39957.803018952654	9545292.538935037
40701.42453219439	9529903.472486127
41458.88496832911	9514228.012892066
42230.441872066716	9498260.830327684
43016.35758106799	9481996.49577887
43816.89931514194	9465429.479196627
44632.33926710397	9448554.147616813
45462.95469532399	9431364.763244856
46309.02801799736	9413855.481504863
47170.84690917023	9396020.34905238
48048.704396551344	9377853.301750204
48942.89896114532	9359348.1626065
49853.73463873894	9340498.639674574
50781.5211232767	9326016.320234898
51726.57387216024	9313185.857000751
52689.21421350677	9300116.616662636
53669.76945540476	9286804.155538023
54668.57299720181	9273243.94724668
55685.96444286408	9259431.38117169
56722.28971644549	9245361.760891749
57777.90117970507	9231030.30258437
58853.1577519145	9216432.13339931
59948.42503189408	9201562.289801748
61064.07542232036	9186415.715884643
62200.48825634718	9170987.26164966
63358.04992658254	9156659.28476114
64537.15401646702	9146888.490269046
65738.20143409586	9136935.859628892
66961.60054853215	9126798.008839028
68207.76732865692	9116471.490920948
69477.1254846024	9105952.794747291
70770.10661181889	9095238.343848027
72087.15033782135	9084324.495194402
73428.70447166759	9073207.537960267
74795.22515621828	9061883.692260396
76187.17702322999	9050349.107865227
77605.0333513357	9038599.862891788
79049.2762269642	9026631.962470187
80520.39670825469	9018492.936084237
82018.8949920221	9011657.882786298
83545.28058382872	9004695.627983464
85100.07247122246	8997603.804434074
86683.79930019773	8990380.000841718
88296.99955494082	8983021.76103533
89940.22174092053	8975526.583134098
91614.0245713852	8967891.918696776
93318.9771573324	8960115.171855193
95055.65920101192	8952193.698431628
96824.66119303115	8944124.805039763
98626.5846131283	8935905.748168906
100462.04213468132	8928671.4809984
102331.65783302448	8924747.464638613
104236.06739764012	8920750.42166667
106175.9183482999	8916678.993044905
108151.87025522892	8912531.794443706
110164.59496336569	8908307.415770873
112214.77682079801	8904004.420692129
114303.11291144785	8899621.346142791
116430.31329208757	8895156.701830287
118597.10123376705	8890608.969727436
120804.21346773289	8885976.603556333
123052.40043592616	8881258.02826256
125342.42654613995	8876451.639479673
127675.07043192645	8874220.932859978
130051.12521734099	8872786.516994629
132471.39878661174	8871325.40640595
134936.71405883064	8869837.1043006
137447.90926775365	8868321.10463982
140005.8382468096	8866776.891967405
142611.37071941295	8865203.941234395
145265.39259467812	8863601.717620598
147968.80626863963	8861969.676352717
150722.53093107554	8860307.262519144
153527.5028780421	8858613.910881257
156384.67583022476	8856889.045681253
159295.0212572123	8855771.085180914
162259.5287078087	8856332.581751352
165279.2061464897	8856904.527868506
168355.08029612005	8857487.118000224
171488.19698705408	8858080.55023342
174679.62151272455	8858685.026341455
177930.43899185772	8859300.751852715
181241.75473742394	8859927.936120506
184614.69463245454	8860566.792394245
188050.40551285836	8861217.53789194
191550.0555573528	8861880.393874077
195114.83468466165	8862555.585718825
198745.9549580986	8863243.3429987
202444.65099768018	8864861.36884691
206212.18039991445	8866759.368322875
210049.8241653915	8868692.689892046
213958.88713434213	8870661.990904586
217940.6984302958	8872667.940944059
221996.61191199525	8874711.222055087
226128.00663372793	8876792.52897527
230336.2873142131	8878912.569371384
234622.88481422624	8881072.06408001
238989.25662310526	8883271.747352611
243436.8873543108	8885512.367105203
247967.289250216	8887794.685172647
252582.00269627848	8890138.62019094
257282.59674479323	8892571.2563143
262070.66964838552	8895049.16420984
266947.8494034318	8897573.186392952
271915.7943036019	8900144.181058366
276976.1935036891	8902763.022371974
282130.76759394706	8905430.600768037
287381.2691851069	8908147.823251957
292729.4835042813	8910915.613708656
298177.22900196735	8913734.913216712
303726.3579703311	8916606.680368328
309378.75717301364	8919531.891595285
315136.34848664823	8922511.541500919
321001.08955431683	8924820.282305427
326974.97445117676	8927002.816381129
333060.03436245886	8929225.96778735
339258.33827409917	8931490.492419524
345571.9936762143	8933797.160240427
352003.1472796675	8936146.755541967
358553.9857459817	8938540.07721187
365226.7364308175	8940977.939005284
372023.6681413066	8943461.169821493
378947.09190746717	8945990.61398573
385999.36176797637	8948567.13153626
393182.87557057705	8951191.598516814
400500.07578736113	8953333.652255187
407953.45034524484	8954401.968661038
415545.53347188793	8955490.166616984
423278.90655735444	8956598.616122052
431156.19903182285	8957727.694061026
439180.0892596086	8958877.784332557
447353.3054498463	8960049.277979737
455678.6265841068	8961242.573323026
464158.8833612772	8962458.076095702
472796.9591600391	8963696.199581804
481595.79101923504	8964957.364756653
490558.37063650455	8966242.000430003
499687.7453854889	8967550.543391822
508987.0193519675	8967102.82153197
518459.3543892913	8966298.07784599
528107.971193433	8965478.357743084
537936.1503980698	8964643.382509576
547947.2336900292	8963792.868244907
558144.6249454955	8962926.525765043
568531.7913873753	8962044.06050422
579112.2647641759	8961145.172414735
589889.6425508494	8960229.555864953
600867.5891719692	8959296.899535382
612049.837247669	8958346.88631282
623440.1888627863	8957379.193182537
635042.5168595961	8955589.123587988
646860.7661546321	8952258.072849646
658898.9550799957	8948865.030690262
671161.1767496272	8945408.843438953
683651.6004510238	8941888.3359548
696374.4730628222	8938302.311227337
709334.1204987989	8934649.549969507
722534.9491787221	8930928.810203131
735981.4475265755	8927138.8268366
749678.1874966878	8923278.311234728
763629.8261282243	8919345.950780615
777841.1071286482	8915340.408429336
792316.8624866261	8911260.322253332
807062.0141149492	8905228.575890552
822081.575524054	8898782.781812157
837380.6535266489	8892217.030409168
852964.4499741016	8885529.089255368
868838.2635251193	8878716.684378702
885007.4914473438	8871777.499488112
901477.6314524917	8864709.175185964
918254.2835656281	8857509.308165833
935343.1520292377	8850175.450395362
952750.0472427299	8842705.108283877
970480.8877380306	8835095.741834577
988541.7021919573	8827344.763780875
1006938.6314760271	8818803.221793436
1025677.9307444209	8809015.54436583
1044765.9715608053	8799045.716595864
1064209.2440647245	8788890.348634675
1084014.359178331	8778545.987547733
1104188.0508541602	8768009.116140809
1124737.1783647507	8757276.151764087
1145668.7286348727	8746343.445094034
1166989.8186171474	8735207.278892592
1188707.6977119034	8723863.866743252
1210829.7502320393	8712309.351763668
1233363.4979137746	8700539.805294242
1256316.6024741214	8688551.225562358
1279696.8682159416	8675443.755681777
1303512.2446815087	8661977.753526129
1327770.829355429	8648261.146779042
1352480.8704178738	8634289.271646425
1377650.769549055	8620057.377540195
1403289.084785873	8605560.625463009
1429404.533431761	8590794.086362956
1456005.9950206485	8575752.739457637
1483102.514336103	8560431.47052703
1510703.3044866556	8544825.070174623
1538817.7500383465	8528928.232056135
1567455.410205595	8512735.55107532
1596626.022101425	8496218.28014853
1626339.5040481905	8479358.43491608
1656605.9589499151	8462184.82509505
1687435.6777273756	8444691.611473057
1718839.1428171454	8426872.846168986
1750827.0317357269	8408722.470610637
1783410.220710006	8390234.313474754
1816599.7883753285	8371402.088588697
1850407.019542302	8352219.3927930975
1884843.4090337954	8332679.703764691
1919920.6655932867	8312776.377798672
1955650.715865947	8292502.647549755
1992045.7084538713	8271851.619731207
2029118.0180466783	8251780.393123545
2066880.2496290822	8231428.942510551
2105345.242766708	8210698.747938723
2144526.0759716653	8189582.760918555
2184436.0711494284	8168073.801786927
2225088.7981283693	8146164.557265977
2266498.079273693	8123847.577976509
2308677.994187172	8101115.275905092
2351642.884494346	8077959.921824094
2395407.358720879	8054373.642663622
2439986.29725955	8030348.4188346295
2485394.857429798	8005876.081502145
2531648.478631358	7981905.425197702
2578762.8875937983	7958795.5881291935
2626754.1037238385	7935255.673060558
2675638.4445520453	7911277.676167041
2725432.531281028	7886853.4446713375
2776153.2944368036	7861974.674071568
2827817.979625338	7836632.90531767
2880444.1533962977	7810819.5219352
2934049.709215787	7784525.747095687
2988652.873550383	7757742.640632367
3044272.2120643063	7730461.096000454
3100926.6359319235	7702671.837180833
3158635.408267819	7674365.415526062
3217418.1506763715	7648799.517254551
3277294.849923382	7622977.668740952
3338285.8647317644	7596675.271232773
3400411.9327037027	7569883.381631462
3463694.1773717343	7542592.8904058635
3528154.1153808828	7514794.518494924
3593813.6638046256	7486478.814152657
3660695.147596906	7457636.149734493
3728821.30718283	7428256.718423763
3798215.306190736	7398330.530897248
3868900.7393279755	7367847.411928745
3940901.6404034477	7336796.996929355
4014242.490499326	7307254.226036166
4088948.226294856	7279734.213736409
4165044.248545185	7251702.049325051
4242556.430717777	7223148.20156416
4321511.127789762	7194062.961837832
4401935.1852088785	7164436.440851167
4483855.948021181	7134258.565267815
4567301.270168747	7103519.074284906
4652299.523960189	7072207.516144301
4738879.609717651	7040313.244578849
4827070.965603188	7007825.415192561
4916903.577628021	6974732.9817734035
5008407.989848212	6941024.69253743
5101615.314749833	6912191.708011898
5196557.243827657	6883038.507704717
5293266.058360566	6853342.761379225
5391774.640387494	6823094.372161714
5492116.483887789	6792283.0552739175
5594325.706169377	6760898.334536106
5698437.0594691355	6728929.538805074
5804485.942768984	6696365.798345799
5912508.413831869	6663196.041135667
6022541.201461928	6629408.989099816
6134621.717992506	6594993.154276513
6248788.072006888	6559936.834911088
6365079.081295578	6527360.586222813
6483534.286054714	6497672.366469867
6604193.962330305	6467431.64389568
6727099.135712336	6436628.136328756
6852291.595284057	6405251.370244606
6979813.907830667	6373290.677204686
7109709.432312423	6340735.190228997
7242022.334607315	6307573.840101169
7376797.60252773	6273795.351604868
7514081.061116962	6239388.239690036
7653919.388230155	6204340.805567891
7796360.130405221	6168641.132733209
7941451.71902934	6132277.082912555
8089243.486805938	6102497.688655932
8239785.684528512	6072256.861426719
8393129.498166373	6041453.247257112
8549327.066268368	6010076.372586394
8708431.497690724	5978115.568939086
8870496.889654402	5945559.969297583
9035578.34613892	5912398.504407221
9203731.99661823	5878619.899012625
9375015.01514529	5844212.668024009
9549485.639791967	5809165.112612097
9727203.192450536	5773465.31623042
9908228.099003786	5737101.140563547
10092621.909870483	5703986.865999897
10280447.320933098	5674219.343084229
10471768.194855202	5643897.841501981
10666649.582795387	5613012.051615901
10865157.746525371	5581551.47192464
11067360.180959744	5549505.405492114
11273325.63710487	5516862.956310455
11483124.14543511	5483613.025595214
11696827.039703846	5449744.30801169
11914506.981197748	5415245.28783097
12136237.983442418	5380104.235014473
12362095.437367693	5344309.201225602
12592156.13694151	5307950.02300607
12826498.3052806	5279047.467611591
13065201.621247198	5249607.0307432795
13308347.24654076	5219618.702335381
13556017.853293689	5189072.286033122
13808297.652180923	5157957.39572582
14065272.421052363	5126263.452015516
14327029.534098294	5093979.67861985
14593657.991557576	5061095.098708008
14865248.449978571	5027598.531168504
15141893.25304352	4993478.586807447
15423686.462966273	4958723.664476121
15710723.892474487	4923321.94712645
16003103.137387017	4891654.010968957
16300923.609797413	4863407.8044383135
16604286.571875297	4834635.931197877
16913295.17029647	4805328.608500727
17228054.471313924	4775475.871541371
17548671.49648152	4745067.570067573
17875255.259042352	4714093.364929199
18207916.800994623	4682542.724562754
18546769.230846975	4650404.921410558
18891927.762076646	4617669.028273259
19243509.75230332	4584323.914594466
19601634.743191857	4550358.242676243
19966424.501097932	4516073.227642064
20338003.0584698	4489252.1963649355
20716496.75602067	4461932.021131978
21102034.285685964	4434103.412789242
21494746.734379806	4405756.909310047
21894767.628566206	4376882.872577777
22302232.979659364	4347471.485108831
22717281.330269028	4317512.746714562
23140053.80130654	4286996.471101116
