Frequency [GHz]	Zx real [Ohm/m]	Zy real [Ohm/m]
1.000000000000000166e-10	2.670183456335013616e+01	3.759153461847665767e+01
1.032794731918951654e-10	2.740419815980170171e+01	3.861376445165347349e+01
1.066664958279539403e-10	2.812959558210853217e+01	3.966951803816888145e+01
1.101645949633656381e-10	2.887878221841461368e+01	4.075989478052651549e+01
1.137774133221491146e-10	2.965253822961561525e+01	4.188603013584044987e+01
1.175087130904807540e-10	3.045166936177463413e+01	4.304909679823635571e+01
1.213623798344240958e-10	3.127700778518089564e+01	4.425030592002940466e+01
1.253424265461399975e-10	3.212941296092517263e+01	4.549090837295024414e+01
1.294529978227915867e-10	3.300977253589432081e+01	4.677219605073263153e+01
1.336983741824946476e-10	3.391900326711684244e+01	4.809550321441894027e+01
1.380829765218092491e-10	3.485805197642229558e+01	4.946220788178476369e+01
1.426113707194128486e-10	3.582789653640825378e+01	5.087373326232923176e+01
1.472882723907502473e-10	3.682954688874200144e+01	5.233154923932546154e+01
1.521185517986104510e-10	3.786404609585706993e+01	5.383717390047445406e+01
1.571072389247450498e-10	3.893247142713983777e+01	5.539217511875637712e+01
1.622595287078087593e-10	4.003593548073743591e+01	5.699817218512550454e+01
1.675807864530767868e-10	4.117558734215497651e+01	5.865683749474882802e+01
1.730765534195724819e-10	4.235261378084862827e+01	6.036989828854449769e+01
1.787525525904235329e-10	4.356824048606077326e+01	6.213913845183359541e+01
1.846146946324547531e-10	4.482373334318385361e+01	6.396640037197797568e+01
1.906690840512252406e-10	4.612039975198245401e+01	6.585358685693920222e+01
1.969220255479172543e-10	4.745958998804591289e+01	6.780266311675580937e+01
2.033800305846981002e-10	4.884269860888953474e+01	6.981565881000268803e+01
2.100498241653915480e-10	5.027116590616854097e+01	7.189467015736362043e+01
2.169383518385184289e-10	5.174647940551677294e+01	7.404186212451767801e+01
2.240527869300018610e-10	5.327017541557255953e+01	7.625947067661310541e+01
2.314005380130653023e-10	5.484384062780411284e+01	7.854980510667566307e+01
2.389892566231049743e-10	5.646911376880095901e+01	8.091525044037689440e+01
2.468268452255692806e-10	5.814768730675188380e+01	8.335826991966577282e+01
2.549214654451423314e-10	5.988130921388612649e+01	8.588140756785070096e+01
2.632815465648021228e-10	6.167178478671370101e+01	8.848729083880249391e+01
2.719157943036017723e-10	6.352097852595955629e+01	9.117863335303719907e+01
2.808331998823172083e-10	6.543081607815020107e+01	9.395823772352831327e+01
2.900430493863991314e-10	6.740328624087365483e+01	9.682899847419044193e+01
2.995549334359813486e-10	6.944044303380178462e+01	9.979390505407397427e+01
3.093787571730138678e-10	7.154440783763087097e+01	1.028560449504095686e+02
3.195247505759212065e-10	7.371737160316840232e+01	1.060186069037437306e+02
3.300034791125284578e-10	7.596159713286635906e+01	1.092848842285146134e+02
3.408258547423451742e-10	7.827942143717643830e+01	1.126582782425243181e+02
3.520031472796679687e-10	8.067325816818159012e+01	1.161423018088804753e+02
3.635469961293320139e-10	8.314560013303778874e+01	1.197405829940945665e+02
3.754694224073336536e-10	8.569902188984345059e+01	1.234568688461467900e+02
3.877828414589456106e-10	8.833618242863950343e+01	1.272950292964511760e+02
4.005000757873611052e-10	9.105982794033263872e+01	1.312590611897852568e+02
4.136343684063274911e-10	9.387279467642403574e+01	1.353530924463794349e+02
4.271993966306778827e-10	9.677801190252246499e+01	1.395813863605014546e+02
4.412092863191189219e-10	9.977850494871711362e+01	1.439483460400115860e+02
4.556786265841064474e-10	1.028773983599864010e+02	1.484585189915121646e+02
4.706224849841281415e-10	1.060779191499236163e+02	1.531166018558652127e+02
4.860564232142136024e-10	1.093834001611679270e+02	1.579274452990110831e+02
5.019965133110081441e-10	1.127972835360391457e+02	1.628960590631789103e+02
5.184593543892912175e-10	1.163231243009918359e+02	1.680276171837514880e+02
5.354620899273606527e-10	1.199645940686200589e+02	1.733274633772147411e+02
5.530224256192902378e-10	1.237254848610686366e+02	1.788011166058043102e+02
5.711586478126431938e-10	1.276097130588319999e+02	1.844542768246427897e+02
5.898896425508497150e-10	1.316213234790530464e+02	1.902928309173528874e+02
6.092349152400710261e-10	1.357644935875685235e+02	1.963228588263277743e+02
6.292146109610343618e-10	1.400435378490873575e+02	2.025506398840412601e+02
6.498495354469890483e-10	1.444629122200320523e+02	2.089826593519923961e+02
6.711611767496282870e-10	1.490272187887213704e+02	2.156256151740924736e+02
6.931717276155404727e-10	1.537412105677267391e+02	2.224864249515277379e+02
7.159041085964887260e-10	1.586097964433927530e+02	2.295722331463609578e+02
7.393819919175865964e-10	1.636380462876755928e+02	2.368904185213727942e+02
7.636298261282244400e-10	1.688311962376232600e+02	2.444486018238914085e+02
7.886728615614152294e-10	1.741946541479942994e+02	2.522546537216103388e+02
8.145371766280743462e-10	1.797340052226946341e+02	2.603167029986604462e+02
8.412497049736117954e-10	1.854550178308946329e+02	2.686431450204687508e+02
8.688382635251186617e-10	1.913636495138855480e+02	2.772426504762210016e+02
8.973315814583522479e-10	1.974660531889279582e+02	2.861241744080301146e+02
9.267593301146878953e-10	2.037685835565546029e+02	2.952969655362147137e+02
9.571521538991863169e-10	2.102778037179986370e+02	3.047705758903966853e+02
9.885417021919573871e-10	2.170004920096386627e+02	3.145548707564486790e+02
1.020960662306046580e-09	2.229533934673728197e+02	3.234410475126080655e+02
1.054442793526168950e-09	2.285424355573520359e+02	3.319304201167912538e+02
1.089022962263730067e-09	2.343147687843558060e+02	3.406981994196887058e+02
1.124737178364752061e-09	2.402764041320860997e+02	3.497535156943492893e+02
1.161622632608501755e-09	2.464335497128436430e+02	3.591057986386784364e+02
1.199717735435884489e-09	2.527926172323081460e+02	3.687647871949972114e+02
1.239062156947916503e-09	2.593602286663280552e+02	3.787405396916287259e+02
1.279696868215940940e-09	2.661432231566743667e+02	3.890434443170769327e+02
1.321664183946605026e-09	2.731486641329394160e+02	3.996842299377034351e+02
1.365007806546013663e-09	2.803838466679950443e+02	4.106739772701652669e+02
1.409772871628966933e-09	2.878563050746726049e+02	4.220241304202523338e+02
1.456005995020649598e-09	2.955738207515726117e+02	4.337465088001355298e+02
1.503755321299737753e-09	3.035444302861767483e+02	4.458533194364393353e+02
1.553070573933460069e-09	3.117764338236990511e+02	4.583571696819544741e+02
1.604003107056820079e-09	3.202784037103901369e+02	4.712710803442257657e+02
1.656605958949914401e-09	3.290591934202983566e+02	4.846084992446917568e+02
1.710933907269014249e-09	3.381279467747796161e+02	4.983833152224890455e+02
1.767043526088946692e-09	3.474941074643602974e+02	5.126098725975114121e+02
1.824993244816152494e-09	3.571674288828654653e+02	5.273029861077769738e+02
1.884843409033795523e-09	3.671579842840563401e+02	5.424779563366663524e+02
1.946656343342262358e-09	3.774761772713508776e+02	5.581505856460905761e+02
2.010496416260498236e-09	3.881327526315515684e+02	5.743371946321821042e+02
2.076430107255774870e-09	3.991388075238643864e+02	5.910546391206497674e+02
2.144526075971667793e-09	4.105058030358555925e+02	6.083203277194862721e+02
2.214855233726359314e-09	4.222455761183865661e+02	6.261522399473178666e+02
2.287490817355702788e-09	4.343703519119485463e+02	6.445689449562635218e+02
2.362508465477946229e-09	4.468927564772376968e+02	6.635896208688078559e+02
2.439986297259550245e-09	4.598258299432263243e+02	6.832340747488216266e+02
2.520004993764092080e-09	4.731830400864199646e+02	7.035227632275244787e+02
2.602647881969005809e-09	4.869782963554449111e+02	7.244768138058735758e+02
2.688001021537606561e-09	5.012259643555656226e+02	7.461180468555556899e+02
2.776153294436799262e-09	5.159408808082204132e+02	7.684689983414974677e+02
2.867196497493770032e-09	5.311383690011501812e+02	7.915529432895548325e+02
2.961225437988034610e-09	5.468342547452081135e+02	8.153939200238150988e+02
3.058338032378433485e-09	5.630448828544732578e+02	8.400167551987617571e+02
3.158635408267817403e-09	5.797871341668192144e+02	8.654470896523547481e+02
3.262222009711669644e-09	5.970784431226735478e+02	8.917114051069630705e+02
3.369205705980266915e-09	6.149368159202626885e+02	9.188370517459396751e+02
3.479697903887691433e-09	6.333808492662575418e+02	9.468522766945699232e+02
3.593813663804627762e-09	6.524297497413388101e+02	9.757862534350399528e+02
3.711671819475765297e-09	6.721033538008507549e+02	1.005669112186062421e+03
3.833395101766601886e-09	6.924221484313743531e+02	1.036531971278797073e+03
3.959110266468459240e-09	7.134072924847217791e+02	1.068406969561729738e+03
4.088948226294862618e-09	7.350806387115796952e+02	1.101327299868268710e+03
4.223044187206674123e-09	7.574647565177335764e+02	1.135327243581893299e+03
4.361537789208003199e-09	7.805829554665826890e+02	1.170442206334865887e+03
4.504573251759458750e-09	8.044593095524087403e+02	1.206708754877666934e+03
4.652299523960189308e-09	8.291186822696809031e+02	1.244164655157554080e+03
4.804870439655131104e-09	8.545867525045058528e+02	1.282848911645903399e+03
4.962444877628916452e-09	8.808900412751746671e+02	1.322801807955271897e+03
5.125186927053329472e-09	9.080559393496641860e+02	1.364064948788491392e+03
5.293266058360561204e-09	9.361127357688445727e+02	1.406681303263471364e+03
5.466857299720180771e-09	9.650896473050963777e+02	1.450695249658820558e+03
5.646141419303669251e-09	9.950168488870189094e+02	1.496152621626900782e+03
5.831305113526221869e-09	1.025925505021904883e+03	1.543100755922413782e+03
6.022541201461928965e-09	1.057847802248709741e+03	1.591588541696243965e+03
6.220048825634711276e-09	1.090816982655304173e+03	1.641666471405869061e+03
6.424033659394191079e-09	1.124867378494920558e+03	1.693386693395377733e+03
6.634708121092347870e-09	1.160034447937831828e+03	1.746803066199822297e+03
6.852291595284060743e-09	1.196354811995498039e+03	1.801971214630469831e+03
7.077010661181889919e-09	1.233866292655634879e+03	1.858948587699366726e+03
7.309099328602911004e-09	1.272607952267902874e+03	1.917794518443503193e+03
7.548799281653435948e-09	1.312620134221251419e+03	1.978570285710915641e+03
7.796360130405233414e-09	1.353944504955251659e+03	2.041339177973030701e+03
8.052039670825474778e-09	1.396624097349192880e+03	2.106166559229731320e+03
8.316104153230961616e-09	1.440703355534103821e+03	2.173119937075754024e+03
8.588828559546249041e-09	1.486228181174374413e+03	2.242269032999303818e+03
8.870496889654407999e-09	1.533245981267176148e+03	2.313685854986106733e+03
9.161402457138517586e-09	1.581805717509438864e+03	2.387444772504467437e+03
9.461848194721997291e-09	1.631957957283821770e+03	2.463622593949476141e+03
9.772146969725725887e-09	1.683754926316741376e+03	2.542298646626944901e+03
1.009262190987047331e-08	1.735619774527631080e+03	2.621536008983759075e+03
1.042360673976401127e-08	1.785042155849374694e+03	2.698242626128670963e+03
1.076544612842315905e-08	1.836085330917363308e+03	2.777464816219262048e+03
1.111849604819270880e-08	1.888802453227996466e+03	2.859285076795903933e+03
1.148312414543511117e-08	1.943248419432345827e+03	2.943788610883695583e+03
1.185971012337669343e-08	1.999479926502435092e+03	3.031063415718100259e+03
1.224864613750930795e-08	2.057555530772286602e+03	3.121200374380327958e+03
1.265033720395903769e-08	2.117250642287457140e+03	3.213938436950213145e+03
1.306520162124721228e-08	2.177261737875516701e+03	3.307673869661060962e+03
1.349367140588306343e-08	2.239240881255548629e+03	3.404483330758967895e+03
1.393619274224142065e-08	2.303252614027295749e+03	3.504467632180799683e+03
1.439322644719406651e-08	2.369363594414959152e+03	3.607730891963863542e+03
1.486524844997857277e-08	2.437642666681337687e+03	3.714380642668593737e+03
1.535275028780422776e-08	2.508160932818364472e+03	3.824527943356904871e+03
1.585623961771137302e-08	2.580957804824177856e+03	3.938245036636640179e+03
1.637624074521687477e-08	2.653756254255979457e+03	4.052714041447926320e+03
1.691329517029648562e-08	2.728942109321014868e+03	4.170937026585032072e+03
1.746796215127245689e-08	2.806593664347002687e+03	4.293037102826364389e+03
1.804081928719382751e-08	2.886791781303158132e+03	4.419141418335313574e+03
1.863246311931559514e-08	2.969619974005294807e+03	4.549381291065201367e+03
1.924350975230330612e-08	3.055164495082429767e+03	4.683892345506425954e+03
1.987459549580983990e-08	3.143514425795427087e+03	4.822814653918188924e+03
2.052637752709252173e-08	3.232097822508815625e+03	4.962959465338510199e+03
2.119953457536071000e-08	3.323212124226836750e+03	5.107232094257950848e+03
2.189476762856620985e-08	3.417314495043683110e+03	5.256236105366047013e+03
2.261280066337277307e-08	3.514502927884405381e+03	5.410126663073280724e+03
2.335438139906479724e-08	3.614878629325765814e+03	5.569064020365388387e+03
2.412028207618007283e-08	3.718546124987069561e+03	5.733213685681790594e+03
2.491130026067788373e-08	3.825613368377293227e+03	5.902746595266829900e+03
2.572825967447932303e-08	3.933370995675133599e+03	6.074299009169872079e+03
2.657201105324503850e-08	4.043670193701622338e+03	6.250232050052577506e+03
2.744343303228365032e-08	4.157586624358268637e+03	6.431934767846722025e+03
2.834343306151309448e-08	4.275238913819461231e+03	6.619596377559866596e+03
2.927294835042816131e-08	4.396749578573182589e+03	6.813412299455030734e+03
3.023294684405776334e-08	4.522245153002796542e+03	7.013584362550372134e+03
3.122442823092858392e-08	4.651856321152848977e+03	7.220321014792595633e+03
3.224842498408442807e-08	4.782831775708261375e+03	7.430203054235053969e+03
3.330600343624588813e-08	4.916204585236510866e+03	7.644578163932355892e+03
3.439826489022924478e-08	5.053951320298516293e+03	7.865983647882273544e+03
3.552634676578139226e-08	5.196215422609591769e+03	8.094650065323717172e+03
3.669142378402493899e-08	5.343145038017652951e+03	8.330815536624026208e+03
3.789470919074667737e-08	5.494893170773972997e+03	8.574725991244135002e+03
3.913745601980383687e-08	5.651617842863236547e+03	8.826635423835738038e+03
4.042095839796305955e-08	5.810677737764778612e+03	9.083261548132395546e+03
4.174655289253134782e-08	5.971758343235036591e+03	9.344264744727095604e+03
4.311561990318228626e-08	6.138121543979039416e+03	9.613827471184118622e+03
4.452958509942655287e-08	6.309940581292615207e+03	9.892230434990628055e+03
4.598992090522439315e-08	6.487394377873462872e+03	1.017976354936061762e+04
4.749814803228499868e-08	6.670667724141178041e+03	1.047672623513418876e+04
4.905583706365045989e-08	6.859951470667633657e+03	1.078342773257763656e+04
5.066461008921269181e-08	7.052944613548947018e+03	1.109701687740230227e+04
5.232614239486661694e-08	7.247243367729977763e+03	1.141451432781954281e+04
5.404216420705915059e-08	7.447914097466563362e+03	1.174242402200816650e+04
5.581446249454960394e-08	7.655165769988841021e+03	1.208108742671133223e+04
5.764488282925879445e-08	7.869214205551245868e+03	1.243085720698250771e+04
5.953533130814369715e-08	8.090282302175584846e+03	1.279209759343101541e+04
6.148777653810024108e-08	8.318600267764553791e+03	1.316518476151140567e+04
6.350425168595962148e-08	8.552545254174681759e+03	1.354813483547677788e+04
6.558685659571428548e-08	8.786598733644610547e+03	1.393399950533707670e+04
6.773775997517751128e-08	9.028327934228460435e+03	1.433251850360245226e+04
6.995920165435375620e-08	9.277984579142435905e+03	1.474410682558054214e+04
7.225349491787214948e-08	9.535828646798147020e+03	1.516919307623887107e+04
7.462302891391107044e-08	9.802128641529519882e+03	1.560821991652996985e+04
7.707027114212294845e-08	1.007716187319812707e+04	1.606164452435364183e+04
7.959777002314985573e-08	1.036046747971843070e+04	1.652898132524370885e+04
8.220815755240541849e-08	1.064200980899597926e+04	1.699747651305348700e+04
8.490415204088747078e-08	1.093278524348601968e+04	1.748133587495280153e+04
8.768856094587425811e-08	1.123309658039877650e+04	1.798106327491207412e+04
9.056428379445295063e-08	1.154325654709782430e+04	1.849717910098559150e+04
9.353431520292386860e-08	1.186358812675674380e+04	1.903022080721429666e+04
9.660174799522647250e-08	1.219442489469575230e+04	1.958074347330039382e+04
9.976977642363202159e-08	1.253611136574825287e+04	2.014932038263609138e+04
1.030416994950587396e-07	1.287530510484538172e+04	2.071888568209193545e+04
1.064209244064724761e-07	1.322455180139805816e+04	2.130574937840734492e+04
1.099109700929497372e-07	1.358525194973774887e+04	2.191185911231635691e+04
1.135154708920999096e-07	1.395778116274536478e+04	2.253784605246238061e+04
1.172381803286598596e-07	1.434252737142554361e+04	2.318436206649526139e+04
1.210829750232039531e-07	1.473989122887622034e+04	2.385208039988966266e+04
1.250538587290391570e-07	1.515028652750628862e+04	2.454169637702512046e+04
1.291549665014884007e-07	1.555954570659161800e+04	2.523499336144182598e+04
1.333905690039058854e-07	1.597835142195377739e+04	2.594599958132907705e+04
1.377650769549053468e-07	1.641089175847735169e+04	2.668032305959022415e+04
1.422830457214352017e-07	1.685761713938136018e+04	2.743872847946275579e+04
1.469491800624817218e-07	1.731899275939351355e+04	2.822200560176589715e+04
1.517683390283405561e-07	1.779549906917790213e+04	2.903097008731319875e+04
1.567455410205594968e-07	1.828763227564934641e+04	2.986646434629597570e+04
1.618859690178197646e-07	1.878082192176935132e+04	3.070965055156761809e+04
1.671949759731990056e-07	1.928218834665960094e+04	3.157003935974579508e+04
1.726780903884356132e-07	1.979999694904727585e+04	3.245864438823421369e+04
1.783410220710008120e-07	2.033478694573557368e+04	3.337639098041373654e+04
1.841896680799711039e-07	2.088711523699820827e+04	3.432423482605332538e+04
1.902301188668944219e-07	2.145755698650405247e+04	3.530316295651168912e+04
1.964686646180446931e-07	2.204670622026033379e+04	3.631419477257638937e+04
2.029118018046678038e-07	2.264026685767513845e+04	3.733874688376241102e+04
2.095662399480432992e-07	2.323938647146498261e+04	3.837858352622298844e+04
2.164389086064020114e-07	2.385815405237645246e+04	3.945252133261255949e+04
2.235369645909794139e-07	2.449721395022405341e+04	4.056167864146030479e+04
2.308677994187169850e-07	2.515723164610173990e+04	4.170721046690769435e+04
2.384390470093720426e-07	2.583889444537747477e+04	4.289030970147521293e+04
2.462585916350547006e-07	2.654291219341458418e+04	4.411220835827390692e+04
2.543345761304648365e-07	2.725629140147788348e+04	4.535594111124767369e+04
2.626754103723835758e-07	2.797084899868060529e+04	4.661094373779305170e+04
2.712897800372467241e-07	2.870884032072426635e+04	4.790710383903362526e+04
2.801866556459195443e-07	2.947103387033283798e+04	4.924577116331837169e+04
2.893753019050950594e-07	3.025822335307117828e+04	5.062833972363170324e+04
2.988652873550382326e-07	3.107122850386532809e+04	5.205624924924006336e+04
3.086664943337274455e-07	3.191089594062853939e+04	5.353098668494532467e+04
3.187891292677645596e-07	3.276703886635550953e+04	5.503924761756735097e+04
3.292437333007768907e-07	3.361753476675812271e+04	5.655172608850878896e+04
3.400411932703706463e-07	3.449592245221261692e+04	5.811380588543794147e+04
3.511927530450727317e-07	3.540311662633248488e+04	5.972711367054337461e+04
3.627100252330649086e-07	3.634006199019109044e+04	6.139332945196417859e+04
3.746050032748993774e-07	3.730773422608010878e+04	6.311418833325573360e+04
3.868900739327976195e-07	3.830714101353051956e+04	6.489148232022960292e+04
3.995780301895269929e-07	3.933304389821211225e+04	6.671854654864143231e+04
4.126820845702951630e-07	4.034313415375401382e+04	6.853845695912507654e+04
4.262158829015325345e-07	4.138635004844039941e+04	7.041805084363710193e+04
4.401935185208874400e-07	4.246377792872656573e+04	7.235928550570814696e+04
4.546295469532399562e-07	4.357653976750872243e+04	7.436418243811356660e+04
4.695390010680058238e-07	4.472579433248339046e+04	7.643482942794237169e+04
4.849374067335232931e-07	4.591273839282301924e+04	7.857338273070139985e+04
5.008407989848212921e-07	4.713860796542432945e+04	8.078206931571885070e+04
5.172657387216018967e-07	4.833691402767219552e+04	8.297018743251510023e+04
