# Frequency (Hz)	Imaginary Part (Ohm/m)
1000.0	26006955.802266356
1018.6101701559753	25926967.009407833
1037.566678745186	25845489.611503676
1056.875971184804	25762495.905360635
1076.5446128423157	25677957.672224406
1096.5792912678098	25591846.16818482
1116.9868184678226	25504132.11440267
1137.7741332214914	25414785.687154565
1158.9483034398106	25323776.507692557
1180.5165285688054	25231073.631914984
1202.4861420374123	25136645.539845258
1224.8646137509306	25040460.124914598
1247.6595526308697	24942484.683045562
1270.8787092020582	24853405.31945487
1294.529978227916	24772959.128520396
1318.6214013947485	24691015.820284218
1343.1611700460153	24607547.53313863
1368.1576279674719	24522525.886966616
1393.619274224142	24435921.973492425
1419.5547660501015	24347706.346452273
1445.9729217920194	24257849.011582516
1472.882723907502	24166319.416421056
1500.2933220192183	24073086.43991935
1528.2140360258693	23978118.38186078
1556.654359271062	23881382.95208237
1585.6239617711371	23783372.62645862
1615.132693503091	23704217.606331035
1645.1905877536624	23623589.49781017
1675.807864530767	23541460.886470377
1706.9949340384078	23457803.847698886
1738.7624002162504	23372589.93720111
1771.1210643450886	23285790.181329302
1804.0819287193826	23197375.067231234
1837.6562003881704	23107314.532815456
1871.8552949655793	23015577.95652984
1906.690840512252	22922134.14695002
1942.1746814890264	22826951.3321739
1978.3188827841643	22729997.149018876
2015.1357338155585	22642639.650756955
2052.6377527092523	22563557.441354632
2090.8376905557498	22483003.498579036
2129.748535745521	22400950.433221627
2169.3835183851843	22317370.3463561
2209.756114795903	22232234.819852367
2250.880052095462	22145514.90671407
2292.7693128656488	22057181.121236358
2335.438139906479	21967203.4289804
2378.9010410788933	21875551.236561302
2423.1727942376006	21782193.381246105
2468.2684522556924	21687098.12035812
2514.2033481427966	21591289.3350574
2560.9931002584594	21513951.727558143
2608.6536176225477	21435174.854023866
2657.2011053245064	21354931.929468766
2706.652070033241	21273195.670433875
2757.0233256095826	21189938.28571043
2808.3319988231724	21105131.466890547
2860.5955351757416	21018746.378742035
2913.831704832789	20930753.64940415
2968.0586086656026	20841123.360400796
3023.2946844057765	20749825.036467962
3079.5587129142264	20656827.635191765
3136.8698245668766	20562099.536453765
3195.2475057592133	20477506.660494354
3254.711605531848	20400679.293503053
3315.282342319423	20322422.156139392
3376.9803108250912	20242708.640133485
3439.8264890229243	20161511.642030966
3503.8422452906757	20078803.553977616
3569.0493456752292	19994556.254332315
3635.4699612933177	19908741.098105416
3703.126675869927	19821328.9072192
3772.0424934169973	19732289.96058687
3842.240846055061	19641593.984007206
3913.745601980384	19549210.13987094
3986.581073580439	19456675.471805405
4060.7720257003657	19381942.420385245
4136.343684063274	19305818.574161872
4213.321743847289	19228278.050207354
4291.732378422157	19149294.48390805
4371.602248248501	19068841.02000041
4452.958509942655	18986890.30343981
4535.828825510186	18903414.47009961
4620.241371751313	18818385.137297016
4706.224849841281	18731773.394142736
4793.808495089106	18643549.79171085
4883.02208687788	18553684.33302592
4973.895958790063	18462146.46286373
5066.461008921268	18381125.231369305
5160.7487103859075	18307255.753848664
5256.791122018419	18232011.55278202
5354.620899273607	18155367.044330277
5454.271305329836	18077296.168534733
5555.7762223988775	17997772.380456418
5659.170163246242	17916768.6411505
5764.488282925873	17834257.408472843
5871.766390733255	17750210.62771526
5981.040962380945	17664599.72206672
6092.349152400711	17577395.582896862
6205.7288067765	17488568.55985875
6321.218475812449	17400132.05986162
6438.8574272404185	17328612.77958264
6558.685659571435	17255762.51332824
6680.743915695614	17181556.491222944
6805.073696735206	17105969.482419662
6931.717276155407	17028975.786520973
7060.717714137772	16950549.22484067
7192.118872221193	16870663.13150275
7325.96542821523	16789290.34437472
7462.302891391108	16706403.195832167
7601.17761795533	16621973.503351495
7742.636826811269	16535972.559927544
7886.728615614156	16448371.124312885
8033.501977124735	16371515.717189102
8183.00681586739	16301132.423351357
8335.293965098195	16229439.284439145
8490.415204088747	16156411.924012762
8648.423275731726	16082025.5119828
8809.37190447399	16006254.756167674
8973.31581458352	15929073.893693982
9140.310748756232	15850456.682236863
9310.413487069076	15770376.391097344
9483.681866285926	15688805.792113576
9660.174799522645	15605717.150402993
9839.952296278227	15521082.214932157
10023.075482838643	15437339.987969104
10209.606623060476	15369473.941848278
10399.609139541202	15300344.897061333
10593.1476351837	15229929.348988177
10790.287915161836	15158203.355583753
10991.097009294961	15085142.529237477
11195.643194838794	15010722.02848114
11403.99601970033	14934916.54954265
11616.22632608502	14857700.31774236
11832.40627458378	14779047.078729464
12052.609368708414	14698930.089555215
12276.910479883603	14617322.109580044
12505.385872903913	14534195.391211456
12738.113231864783	14461902.012166942
12975.171686575868	14395368.21711467
13216.641839466038	14327596.216815354
13462.60579298911	14258562.96805864
13713.147177539455	14188244.998796156
13968.351179887397	14116618.400160678
14228.30457214352	14043658.818336895
14493.09574126215	13969341.44628086
14762.81471909391	13893641.015285319
15037.553212997384	13816531.78638808
15317.404637020798	13737987.541620461
15602.46414366368	13657981.575092934
15892.828656229764	13579319.763425753
16188.596901781993	13515397.005563572
16489.86944471065	13450284.634300739
16796.74872092653	13383960.510729447
17109.339072690134	13316402.083933052
17427.746784089173	13247586.383318497
17752.08011717636	13177490.010806108
18082.44934877952	13106089.13287395
18418.96680799711	13033359.472454188
18761.746914391195	12959276.300678628
19110.90621689136	12883814.428470628
19466.56343342263	12806948.19798054
19828.83949127071	12728651.473861797
20197.857568198782	12661157.799669856
20573.743134329114	12598711.617744857
20956.623994804308	12535103.301748661
21346.630333242454	12470311.224168418
21743.8947560008	12404313.354999658
22148.55233726359	12337087.254255738
22560.74066496859	12268610.064338047
22980.599887588487	12198858.50226419
23408.272761782944	12127808.851751477
23843.904700937208	12055436.95515322
24287.643824604504	11981718.205244752
24739.64100886812	11906627.536856804
25200.049937640895	11833278.867252322
25669.027154919517	11773502.642525593
26146.732118010917	11712613.97208543
26633.327251749808	11650592.1531278
27128.978003724646	11587416.097565986
27633.852900531667	11523064.324860392
28148.123605075813	11457514.95471489
28671.964974937695	11390745.699637374
29205.55512182745	11322733.857361678
29749.075472144435	11253456.303128608
30302.71082866393	11182889.481823277
30866.649433372742	11111009.399966082
31441.08303147265	11037791.617554694
32026.206936576502	10975264.265520722
32622.220097116733	10917102.631737325
33229.325163989684	10857858.600052683
33847.72855945983	10797512.026857646
34477.640547344636	10736042.39366714
35119.275304507275	10673428.800143518
35772.850993678774	10609649.956990343
36438.58983763541	10544684.17871375
37116.71819475767	10478509.376249095
37807.466635993485	10411103.049450552
38511.070023255685	10342442.279440688
39227.76758927723	10272503.720817901
39957.803018952654	10204655.212083135
40701.42453219439	10149236.281370917
41458.88496832911	10092785.994928287
42230.441872066716	10035285.159049613
43016.35758106799	9976714.222831119
43816.89931514194	9917053.271523412
44632.33926710397	9856282.019760195
45462.95469532399	9794379.804661075
46309.02801799736	9731325.578805927
47170.84690917023	9667097.90307856
48048.704396551344	9601674.939377189
48942.89896114532	9535034.443189228
49853.73463873894	9467153.756027924
50781.5211232767	9409792.712545052
51726.57387216024	9356162.688998612
52689.21421350677	9301534.60158852
53669.76945540476	9245889.876176434
54668.57299720181	9189209.592956133
55685.96444286408	9131474.480020618
56722.28971644549	9072664.906809397
57777.90117970507	9012760.877433926
58853.1577519145	8951742.023878742
59948.42503189408	8889587.599076169
61064.07542232036	8826276.469852071
62200.48825634718	8761787.10974035
63358.04992658254	8699687.869385963
64537.15401646702	8648914.09904836
65738.20143409586	8597195.420205314
66961.60054853215	8544514.247948764
68207.76732865692	8490852.67011249
69477.1254846024	8436192.441181855
70770.10661181889	8380514.976090054
72087.15033782135	8323801.343899036
73428.70447166759	8266032.26136279
74795.22515621828	8207188.08637078
76187.17702322999	8147248.811269485
77605.0333513357	8086194.056059528
79049.2762269642	8024003.061466286
80520.39670825469	7972092.865594165
82018.8949920221	7923325.511223626
83545.28058382872	7873650.588090206
85100.07247122246	7823051.206184784
86683.79930019773	7771510.1611723155
88296.99955494082	7719009.92854215
89940.22174092053	7665532.6576494975
91614.0245713852	7611060.165646068
93318.9771573324	7555573.93129763
95055.65920101192	7499055.0886866525
96824.66119303115	7441484.420797669
98626.5846131283	7382842.352983274
100462.04213468132	7326833.036371241
102331.65783302448	7281057.20660535
104236.06739764012	7234429.480858482
106175.9183482999	7186934.005201478
108151.87025522892	7138554.630660854
110164.59496336569	7089274.907727992
112214.77682079801	7039078.0807661135
114303.11291144785	6987947.082313184
116430.31329208757	6935864.527278797
118597.10123376705	6882812.7070330605
120804.21346773289	6828773.583385469
123052.40043592616	6773728.782451716
125342.42654613995	6717659.588406383
127675.07043192645	6671519.1420157235
130051.12521734099	6627969.213162609
132471.39878661174	6583608.812723266
134936.71405883064	6538422.857683562
137447.90926775365	6492395.984331902
140005.8382468096	6445512.543035432
142611.37071941295	6397756.592918921
145265.39259467812	6349111.896444785
147968.80626863963	6299561.913892088
150722.53093107554	6249089.797732853
153527.5028780421	6197678.386903765
156384.67583022476	6145310.200971185
159295.0212572123	6095738.405623374
162259.5287078087	6055277.863902473
165279.2061464897	6014064.344615545
168355.08029612005	5972083.83472196
171488.19698705408	5929322.060396015
174679.62151272455	5885764.482173695
177930.43899185772	5841396.290009079
181241.75473742394	5796202.398238759
184614.69463245454	5750167.440452599
188050.40551285836	5703275.764268895
191550.0555573528	5655511.426012525
195114.83468466165	5606858.185293816
198745.9549580986	5557299.499486688
202444.65099768018	5517151.08101444
206212.18039991445	5479069.444741585
210049.8241653915	5440279.1027378775
213958.88713434213	5400766.86586907
217940.6984302958	5360519.299548888
221996.61191199525	5319522.719171129
226128.00663372793	5277763.185456721
230336.2873142131	5235226.499714259
234622.88481422624	5191898.199012255
238989.25662310526	5147763.551261615
243436.8873543108	5102807.550206571
247967.289250216	5057014.910322354
252582.00269627848	5014080.208384115
257282.59674479323	4979083.724484939
262070.66964838552	4943435.95006553
266947.8494034318	4907124.764498505
271915.7943036019	4870137.821589505
276976.1935036891	4832462.545379423
282130.76759394706	4794086.125868398
287381.2691851069	4754995.51466029
292729.4835042813	4715177.420526108
298177.22900196735	4674618.304884791
303726.3579703311	4633304.377200021
309378.75717301364	4591221.5902912235
315136.34848664823	4548355.63555741
321001.08955431683	4514191.907154458
326974.97445117676	4481604.972374706
333060.03436245886	4448411.589193844
339258.33827409917	4414600.47150393
345571.9936762143	4380160.123160643
352003.1472796675	4345078.834074464
358553.9857459817	4309344.6762290895
365226.7364308175	4272945.499625839
372023.6681413066	4235868.9281524625
378947.09190746717	4198102.355375164
385999.36176797637	4159632.940252279
393182.87557057705	4120447.6027681497
400500.07578736113	4084069.989298344
407953.45034524484	4054429.475481951
415545.53347188793	4024237.3466599216
423278.90655735444	3993483.3371831467
431156.19903182285	3962156.9903570265
439180.0892596086	3930247.6548861107
447353.3054498463	3897744.4812525157
455678.6265841068	3864636.418026989
464158.8833612772	3830912.2081113043
472796.9591600391	3796560.384910708
481595.79101923504	3761569.2684351844
490558.37063650455	3725926.9613281027
499687.7453854889	3689621.344821003
508987.0193519675	3661148.5939958617
518459.3543892913	3633812.142753364
528107.971193433	3605966.9555017874
537936.1503980698	3577603.5645774323
547947.2336900292	3548712.326121773
558144.6249454955	3519283.4168024426
568531.7913873753	3489306.830473168
579112.2647641759	3458772.3747716127
589889.6425508494	3427669.667653833
600867.5891719692	3395988.133864278
612049.837247669	3363717.0013401
623440.1888627863	3330845.2975485167
635042.5168595961	3300630.9619770353
646860.7661546321	3275981.8060090835
658898.9550799957	3250873.9250543644
671161.1767496272	3225298.7821628293
683651.6004510238	3199247.681510312
696374.4730628222	3172711.7654419015
709334.1204987989	3145682.011460216
722534.9491787221	3118149.229157652
735981.4475265755	3090104.0570915784
749678.1874966878	3061536.959601293
763629.8261282243	3032438.223565856
777841.1071286482	3002797.9551014765
792316.8624866261	2972606.076197501
807062.0141149492	2949285.983725222
822081.575524054	2926727.94129554
837380.6535266489	2903750.0898578595
852964.4499741016	2880344.6166951046
868838.2635251193	2856503.56369421
885007.4914473438	2832218.824640271
901477.6314524917	2807482.1424603453
918254.2835656281	2782285.106415957
935343.1520292377	2756619.149243357
952750.0472427299	2730475.5442405553
970480.8877380306	2703845.402300165
988541.7021919573	2676719.6688869847
1006938.6314760271	2652029.2394629205
1025677.9307444209	2631824.918532799
1044765.9715608053	2611244.59175228
1064209.2440647245	2590281.2615885115
1084014.359178331	2568927.800283361
1104188.0508541602	2547176.947429903
1124737.1783647507	2525021.307503802
1145668.7286348727	2502453.347348761
1166989.8186171474	2479465.3936151643
1188707.6977119034	2456049.630151045
1210829.7502320393	2432198.09534453
1233363.4979137746	2407902.6794167813
1256316.6024741214	2383155.1216646046
1279696.8682159416	2364307.4899822823
1303512.2446815087	2345922.8171455846
1327770.829355429	2327196.0024191346
1352480.8704178738	2308120.678484146
1377650.769549055	2288690.359524941
1403289.084785873	2268898.4390237257
1429404.533431761	2248738.1875142674
1456005.9950206485	2228202.750293833
1483102.514336103	2207285.145092497
1510703.3044866556	2185978.259699108
1538817.7500383465	2164274.849543054
1567455.410205595	2142167.5352310343
1596626.022101425	2122235.3158562845
1626339.5040481905	2105847.8731406215
1656605.9589499151	2089155.4573275973
1687435.6777273756	2072152.3928159801
1718839.1428171454	2054832.898380628
1750827.0317357269	2037191.085206817
1783410.220710006	2019220.9548879864
1816599.7883753285	2000916.397386192
1850407.019542302	1982271.188954662
1884843.4090337954	1963278.9900216279
1919920.6655932867	1943933.3430348109
1955650.715865947	1924227.6702657966
1992045.7084538713	1904155.2715735082
2029118.0180466783	1889065.4225278397
2066880.2496290822	1874213.097606365
2105345.242766708	1859084.3683908898
2144526.0759716653	1843674.0909504741
2184436.0711494284	1827977.0256247374
2225088.7981283693	1811987.835242342
2266498.079273693	1795701.0833062725
2308677.994187172	1779111.2321453833
2351642.884494346	1762212.6410315314
2395407.358720879	1744999.5642616516
2439986.29725955	1727466.1492041775
2485394.857429798	1709606.4343090688
2531648.478631358	1693652.0556384786
2578762.8875937983	1680456.2985727075
2626754.1037238385	1667014.966222602
2675638.4445520453	1653323.4883903395
2725432.531281028	1639377.2098259318
2776153.2944368036	1625171.3886443975
2827817.979625338	1610701.1947134724
2880444.1533962977	1595961.7080112973
2934049.709215787	1580947.9169535874
2988652.873550383	1565654.716689607
3044272.2120643063	1550076.9073664807
3100926.6359319235	1534209.1923611988
3158635.408267819	1518046.176479678
3217418.1506763715	1506041.534854945
3277294.849923382	1494113.51256791
3338285.8647317644	1481963.5077564877
3400411.9327037027	1469587.3892881314
3463694.1773717343	1456980.9491492063
3528154.1153808828	1444139.901014236
3593813.6638046256	1431059.8787884924
3660695.147596906	1417736.4351234825
3728821.30718283	1404165.0399048068
3798215.306190736	1390341.0787118536
3868900.7393279755	1376259.8512488718
3940901.6404034477	1361916.569746799
4014242.490499326	1349218.784785565
4088948.226294856	1338643.7566855205
4165044.248545185	1327871.925513127
4242556.430717777	1316899.6287297253
4321511.127789762	1305723.1356361832
4401935.1852088785	1294338.6461044217
4483855.948021181	1282742.2892853373
4567301.270168747	1270930.1222926583
4652299.523960189	1258898.1288623356
4738879.609717651	1246642.2179869597
4827070.965603188	1234158.2225247743
4916903.577628021	1221441.8977828152
5008407.989848212	1208488.920073646
5101615.314749833	1198978.3590926377
5196557.243827657	1189435.644420665
5293266.058360566	1179715.3382048968
5391774.640387494	1169814.1354364874
5492116.483887789	1159728.669599806
5594325.706169377	1149455.5115278023
5698437.0594691355	1138991.1682360407
5804485.942768984	1128332.081735047
5912508.413831869	1117474.6278205651
6022541.201461928	1106415.114841272
6134621.717992506	1095149.7824435933
6248788.072006888	1083674.8002931292
6365079.081295578	1073606.3088468094
6483534.286054714	1065157.5994890432
6604193.962330305	1056551.6582125286
6727099.135712336	1047785.5589045063
6852291.595284057	1038856.3209967583
6979813.907830667	1029760.9084521827
7109709.432312423	1020496.2287325156
7242022.334607315	1011059.1317468231
7376797.60252773	1001446.4087804491
7514081.061116962	991654.7914040084
7653919.388230155	981680.9503620896
7796360.130405221	971521.494441274
7941451.71902934	961172.9693170775
8089243.486805938	953658.5051964221
8239785.684528512	946042.8620082329
8393129.498166373	938285.4904044633
8549327.066268368	930383.7527951859
8708431.497690724	922334.962504471
8870496.889654402	914136.3828568967
9035578.34613892	905785.2262470437
9203731.99661823	897278.6531916811
9375015.01514529	888613.7713643151
9549485.639791967	879787.6346117605
9727203.192450536	870797.2419524204
9908228.099003786	861639.5365559217
10092621.909870483	853674.9141827215
10280447.320933098	846938.2073961031
10471768.194855202	840076.1293498946
10666649.582795387	833086.3468636224
10865157.746525371	825966.483335928
11067360.180959744	818714.1179364951
11273325.63710487	811326.7847829458
11483124.14543511	803801.9721024105
11696827.039703846	796137.1213774986
11914506.981197748	788329.6264763753
12136237.983442418	780376.8327666498
12362095.437367693	772276.0362127715
12592156.13694151	764054.7945276944
12826498.3052806	758097.405739129
13065201.621247198	752029.1489315225
13308347.24654076	745847.9608321767
13556017.853293689	739551.7397705362
13808297.652180923	733138.3449635988
14065272.421052363	726605.5957880265
14327029.534098294	719951.2710387108
14593657.991557576	713173.1081735365
14865248.449978571	706268.8025440973
15141893.25304352	699236.0066120854
15423686.462966273	692072.3291511064
15710723.892474487	684775.3344336357
16003103.137387017	678484.5897641671
16300923.609797413	673119.6244796887
16604286.571875297	667654.8162783856
16913295.17029647	662088.307066586
17228054.471313924	656418.2041711804
17548671.49648152	650642.5796960887
17875255.259042352	644759.4698667594
18207916.800994623	638766.8743624594
18546769.230846975	632662.755636149
18891927.762076646	626445.0382216894
19243509.75230332	620111.6080281641
19601634.743191857	613660.3116210671
19966424.501097932	607161.4348175719
20338003.0584698	602419.1636066019
20716496.75602067	597588.6379214702
21102034.285685964	592668.2153313946
21494746.734379806	587656.2228396792
