# Frequency (Hz)	Imaginary Part (Ohm/m)
1000.0	23077434.009320725
1018.6101701559753	23069509.89419215
1037.566678745186	23061438.309932698
1056.875971184804	23053216.51211675
1076.5446128423157	23044841.705244455
1096.5792912678098	23036311.04179125
1116.9868184678226	23027621.621239632
1137.7741332214914	23018770.48909299
1158.9483034398106	23009754.63587103
1180.5165285688054	23000570.996086508
1202.4861420374123	22991216.447202947
1224.8646137509306	22981687.808572926
1247.6595526308697	22971981.840356648
1270.8787092020582	22962265.78851296
1294.529978227916	22952532.648528952
1318.6214013947485	22942618.37315369
1343.1611700460153	22932519.591426723
1368.1576279674719	22922232.86965345
1393.619274224142	22911754.710237626
1419.5547660501015	22901081.550492153
1445.9729217920194	22890209.761427715
1472.882723907502	22879135.64651889
1500.2933220192183	22867855.440447282
1528.2140360258693	22856365.30782129
1556.654359271062	22844661.341872007
1585.6239617711371	22832751.199855678
1615.132693503091	22821077.448634904
1645.1905877536624	22809186.446917553
1675.807864530767	22797074.151634917
1706.9949340384078	22784736.444476087
1738.7624002162504	22772169.130487703
1771.1210643450886	22759367.936647587
1804.0819287193826	22746328.51041191
1837.6562003881704	22733046.41823525
1871.8552949655793	22719517.144063152
1906.690840512252	22705736.08779663
1942.1746814890264	22691698.563728053
1978.3188827841643	22677399.798947994
2015.1357338155585	22663184.792431228
2052.6377527092523	22649009.072989233
2090.8376905557498	22634569.54099634
2129.748535745521	22619861.28685608
2169.3835183851843	22604879.30960358
2209.756114795903	22589618.515205137
2250.880052095462	22574073.714826223
2292.7693128656488	22558239.623067215
2335.438139906479	22542110.856166307
2378.9010410788933	22525681.930168964
2423.1727942376006	22508947.259063337
2468.2684522556924	22491901.152880926
2514.2033481427966	22474582.436290212
2560.9931002584594	22457797.06818918
2608.6536176225477	22440699.32153166
2657.2011053245064	22423283.38289956
2706.652070033241	22405543.33068609
2757.0233256095826	22387473.133082353
2808.3319988231724	22369066.646026455
2860.5955351757416	22350317.611114476
2913.831704832789	22331219.653472524
2968.0586086656026	22311766.27958922
3023.2946844057765	22291950.875107847
3079.5587129142264	22271766.70257736
3136.8698245668766	22251206.899161626
3195.2475057592133	22230951.175248675
3254.711605531848	22210857.535582412
3315.282342319423	22190389.949862905
3376.9803108250912	22169541.458890475
3439.8264890229243	22148304.973953556
3503.8422452906757	22126673.274418443
3569.0493456752292	22104639.005274218
3635.4699612933177	22082194.67463196
3703.126675869927	22059332.65117741
3772.0424934169973	22036045.16157626
3842.240846055061	22012324.28783113
3913.745601980384	21988161.964589354
3986.581073580439	21963672.54056167
4060.7720257003657	21940253.009503014
4136.343684063274	21916397.636986386
4213.321743847289	21892098.311928086
4291.732378422157	21867346.772295777
4371.602248248501	21842134.60229929
4452.958509942655	21816453.229529165
4535.828825510186	21790293.92204195
4620.241371751313	21763647.785391234
4706.224849841281	21736505.75960345
4793.808495089106	21708858.616097376
4883.02208687788	21680696.95454633
4973.895958790063	21652011.19968194
5066.461008921268	21624071.417921405
5160.7487103859075	21596518.589886267
5256.791122018419	21568452.999033112
5354.620899273607	21539865.10275865
5454.271305329836	21510745.180870123
5555.7762223988775	21481083.332280323
5659.170163246242	21450869.47164112
5764.488282925873	21420093.325914357
5871.766390733255	21388744.43087887
5981.040962380945	21356812.127572574
6092.349152400711	21324285.558668274
6205.7288067765	21291153.664782077
6321.218475812449	21257688.783185482
6438.8574272404185	21226177.20573639
6558.685659571435	21194079.19246909
6680.743915695614	21161383.829713218
6805.073696735206	21128080.000693146
6931.717276155407	21094156.381748166
7060.717714137772	21059601.43848231
7192.118872221193	21024403.421842553
7325.96542821523	20988550.364123974
7462.302891391108	20952030.07490064
7601.17761795533	20914830.136880714
7742.636826811269	20876937.901684444
7886.728615614156	20838340.485543583
8033.501977124735	20801272.377647836
8183.00681586739	20764949.551024873
8335.293965098195	20727950.75041791
8490.415204088747	20690263.395836085
8648.423275731726	20651874.673172764
8809.37190447399	20612771.52984861
8973.31581458352	20572940.670373555
9140.310748756232	20532368.551826213
9310.413487069076	20491041.37924912
9483.681866285926	20448945.100958295
9660.174799522645	20406065.403765548
9839.952296278227	20362387.708111808
10023.075482838643	20318475.740528174
10209.606623060476	20277834.161376014
10399.609139541202	20236436.23552043
10593.1476351837	20194267.887220565
10790.287915161836	20151314.778783645
10991.097009294961	20107562.305689987
11195.643194838794	20062995.591627304
11403.99601970033	20017599.483432632
11616.22632608502	19971358.545940034
11832.40627458378	19924257.056732528
12052.609368708414	19876279.000796266
12276.910479883603	19827408.06507528
12505.385872903913	19777627.632924844
12738.113231864783	19730613.65411876
12975.171686575868	19684844.0480751
13216.641839466038	19638222.661874995
13462.60579298911	19590733.643744793
13713.147177539455	19542360.84690665
13968.351179887397	19493087.824088436
14228.30457214352	19442897.82193147
14493.09574126215	19391773.775294237
14762.81471909391	19339698.301450014
15037.553212997384	19286653.694176607
15317.404637020798	19232621.917735983
15602.46414366368	19177584.60074197
15892.828656229764	19122581.499068737
16188.596901781993	19072608.382771585
16489.86944471065	19021705.25827693
16796.74872092653	18969854.817973953
17109.339072690134	18917039.43215428
17427.746784089173	18863241.143017646
17752.08011717636	18808441.658566076
18082.44934877952	18752622.346384406
18418.96680799711	18695764.227305047
18761.746914391195	18637847.968954872
19110.90621689136	18578853.879182003
19466.56343342263	18518761.899360258
19828.83949127071	18457551.597569026
20197.857568198782	18400845.181853928
20573.743134329114	18345984.807573926
20956.623994804308	18290103.47239375
21346.630333242454	18233182.176057324
21743.8947560008	18175201.564710584
22148.55233726359	18116141.924320932
22560.74066496859	18055983.17397428
22980.599887588487	17994704.859047305
23408.272761782944	17932286.14425266
23843.904700937208	17868705.80655478
24287.643824604504	17803942.22795376
24739.64100886812	17737973.38813507
25200.049937640895	17672526.400455
25669.027154919517	17614185.748912755
26146.732118010917	17554759.3679183
26633.327251749808	17494227.05186179
27128.978003724646	17432568.21910353
27633.852900531667	17369761.90497602
28148.123605075813	17305786.754655723
28671.964974937695	17240621.015902214
29205.55512182745	17174242.531662166
29749.075472144435	17106628.732535705
30302.71082866393	17037756.629102625
30866.649433372742	16967602.804105643
31441.08303147265	16896143.404488377
32026.206936576502	16831342.146334585
32622.220097116733	16768999.45147403
33229.325163989684	16705496.548454147
33847.72855945983	16640811.845603656
34477.640547344636	16574923.349426636
35119.275304507275	16507808.65712444
35772.850993678774	16439444.948978523
36438.58983763541	16369808.980591536
37116.71819475767	16298877.074983874
37807.466635993485	16226625.114543375
38511.070023255685	16153028.532824975
39227.76758927723	16078062.306197887
39957.803018952654	16004325.862018883
40701.42453219439	15939814.180814559
41458.88496832911	15874101.926245982
42230.441872066716	15807166.75543855
43016.35758106799	15738985.909712967
43816.89931514194	15669536.206847059
44632.33926710397	15598794.033193532
45462.95469532399	15526735.335651113
46309.02801799736	15453335.613486208
47170.84690917023	15378569.910002407
48048.704396551344	15302412.80405495
48942.89896114532	15224838.401407221
49853.73463873894	15145820.325926473
50781.5211232767	15075790.06931496
51726.57387216024	15008715.639193729
52689.21421350677	14940392.942514833
53669.76945540476	14870798.748825226
54668.57299720181	14799909.395349188
55685.96444286408	14727700.778942715
56722.28971644549	14654148.347898182
57777.90117970507	14579227.093596531
58853.1577519145	14502911.54200403
59948.42503189408	14425175.745010844
61064.07542232036	14345993.271608405
62200.48825634718	14265337.198902566
63358.04992658254	14186770.88792101
64537.15401646702	14119225.35532291
65738.20143409586	14050422.788869882
66961.60054853215	13980339.794947999
68207.76732865692	13908952.54458418
69477.1254846024	13836236.76534413
70770.10661181889	13762167.733079402
72087.15033782135	13686720.263520934
73428.70447166759	13609868.703716148
74795.22515621828	13531586.923306633
76187.17702322999	13451848.305643594
77605.0333513357	13370625.738737842
79049.2762269642	13287891.60604147
80520.39670825469	13216294.302530188
82018.8949920221	13147918.305314492
83545.28058382872	13078269.819156036
85100.07247122246	13007325.162819061
86683.79930019773	12935060.214356001
88296.99955494082	12861450.40290573
89940.22174092053	12786470.700339211
91614.0245713852	12710095.612749696
93318.9771573324	12632299.171784459
95055.65920101192	12553054.925815329
96824.66119303115	12472335.930944836
98626.5846131283	12390114.74184497
100462.04213468132	12310866.419160357
102331.65783302448	12243777.54188939
104236.06739764012	12175440.129196834
106175.9183482999	12105830.945626054
108151.87025522892	12034926.323304594
110164.59496336569	11962702.153896894
112214.77682079801	11889133.880407142
114303.11291144785	11814196.488829665
116430.31329208757	11737864.499643886
118597.10123376705	11660111.95915101
120804.21346773289	11580912.430649508
123052.40043592616	11500238.985446319
125342.42654613995	11418064.193700831
127675.07043192645	11348633.18777867
130051.12521734099	11282396.911924616
132471.39878661174	11214927.967706427
134936.71405883064	11146203.414956091
137447.90926775365	11076199.886585182
140005.8382468096	11004893.580639768
142611.37071941295	10932260.252207508
145265.39259467812	10858275.205174139
147968.80626863963	10782913.28382648
150722.53093107554	10706148.86429926
153527.5028780421	10627955.845862715
156384.67583022476	10548307.642048046
159295.0212572123	10472389.379625319
162259.5287078087	10408926.897977676
165279.2061464897	10344283.368748043
168355.08029612005	10278436.812439976
171488.19698705408	10211364.840514818
174679.62151272455	10143044.647779444
177930.43899185772	10073453.004632173
181241.75473742394	10002566.249164492
184614.69463245454	9930360.279115768
188050.40551285836	9856810.543678142
191550.0555573528	9781892.035149105
195114.83468466165	9705579.28042851
198745.9549580986	9627846.332357487
202444.65099768018	9563679.329032859
206212.18039991445	9502406.661935894
210049.8241653915	9439993.700078353
213958.88713434213	9376419.222380703
217940.6984302958	9311661.612835515
221996.61191199525	9245698.853157815
226128.00663372793	9178508.515298538
230336.2873142131	9110067.75381887
234622.88481422624	9040353.29812246
238989.25662310526	8969341.444543201
243436.8873543108	8897008.048285758
247967.289250216	8823328.515215985
252582.00269627848	8753892.906778816
257282.59674479323	8696388.446307568
262070.66964838552	8637813.818042217
266947.8494034318	8578149.105978036
271915.7943036019	8517374.02347002
276976.1935036891	8455467.906335294
282130.76759394706	8392409.705826996
287381.2691851069	8328177.981477501
292729.4835042813	8262750.893808464
298177.22900196735	8196106.196905082
303726.3579703311	8128221.230852343
309378.75717301364	8059072.914030328
315136.34848664823	7988637.73526625
321001.08955431683	7931754.904294906
326974.97445117676	7877275.1720286105
333060.03436245886	7821781.562674793
339258.33827409917	7765255.2078083325
345571.9936762143	7707676.887859504
352003.1472796675	7649027.025579144
358553.9857459817	7589285.67938211
365226.7364308175	7528432.536567008
372023.6681413066	7466446.906409591
378947.09190746717	7403307.713127713
385999.36176797637	7338993.488715362
393182.87557057705	7273482.365643235
400500.07578736113	7212437.072771365
407953.45034524484	7162172.455251741
415545.53347188793	7110972.404647247
423278.90655735444	7058819.512389019
431156.19903182285	7005696.045931729
439180.0892596086	6951583.942724398
447353.3054498463	6896464.804068882
455678.6265841068	6840319.88886413
464158.8833612772	6783130.107234037
472796.9591600391	6724876.014036612
481595.79101923504	6665537.802252507
490558.37063650455	6605095.296250348
499687.7453854889	6543527.944926829
508987.0193519675	6494793.304829786
518459.3543892913	6447889.045098294
528107.971193433	6400111.889112164
537936.1503980698	6351445.592123564
547947.2336900292	6301873.60706714
558144.6249454955	6251379.078933856
568531.7913873753	6199944.839040057
579112.2647641759	6147553.399189995
589889.6425508494	6094186.945729608
600867.5891719692	6039827.333489696
612049.837247669	5984456.079616398
623440.1888627863	5928054.357286755
635042.5168595961	5876070.180964099
646860.7661546321	5833366.010222682
658898.9550799957	5789867.107597392
671161.1767496272	5745558.682992659
683651.6004510238	5700425.671066677
696374.4730628222	5654452.726109106
709334.1204987989	5607624.216823303
722534.9491787221	5559924.221011536
735981.4475265755	5511336.520161283
749678.1874966878	5461844.593930708
763629.8261282243	5411431.614531641
777841.1071286482	5360080.441007888
792316.8624866261	5307773.613407142
807062.0141149492	5267106.768829979
822081.575524054	5227712.546963907
837380.6535266489	5187585.19192575
852964.4499741016	5146711.059982424
868838.2635251193	5105076.253488649
885007.4914473438	5062666.616161619
901477.6314524917	5019467.72826768
918254.2835656281	4975464.901719486
935343.1520292377	4930643.175081885
952750.0472427299	4884987.30848487
970480.8877380306	4838481.778441871
988541.7021919573	4791110.772571578
1006938.6314760271	4747906.404604032
1025677.9307444209	4712389.656011397
1044765.9715608053	4676211.934684061
1064209.2440647245	4639360.9398069745
1084014.359178331	4601824.141644807
1104188.0508541602	4563588.77728173
1124737.1783647507	4524641.846281881
1145668.7286348727	4484970.106269068
1166989.8186171474	4444560.068424237
1188707.6977119034	4403397.992899105
1210829.7502320393	4361469.884144477
1233363.4979137746	4318761.486151606
1256316.6024741214	4275258.277604994
1279696.8682159416	4241972.942469672
1303512.2446815087	4209478.941157058
1327770.829355429	4176380.220950966
1352480.8704178738	4142665.527929894
1377650.769549055	4108323.3987349398
1403289.084785873	4073342.156672153
1429404.533431761	4037709.9077423103
1456005.9950206485	4001414.5365968435
1483102.514336103	3964443.7024184843
1510703.3044866556	3926784.834725254
1538817.7500383465	3888425.1290963753
1567455.410205595	3849351.5428186106
1596626.022101425	3814070.9952086923
1626339.5040481905	3784976.995227437
1656605.9589499151	3755341.550956009
1687435.6777273756	3725154.5860240455
1718839.1428171454	3694405.8365382054
1750827.0317357269	3663084.8475923473
1783410.220710006	3631180.9697127603
1816599.7883753285	3598683.3552371906
1850407.019542302	3565580.9546265714
1884843.4090337954	3531862.512708018
1919920.6655932867	3497516.564847961
1955650.715865947	3462531.433054069
1992045.7084538713	3426895.2220045547
2029118.0180466783	3400017.5727324216
2066880.2496290822	3373551.537839317
2105345.242766708	3346592.9655334963
2144526.0759716653	3319132.689609907
2184436.0711494284	3291161.3732788437
2225088.7981283693	3262669.505991376
2266498.079273693	3233647.400205627
2308677.994187172	3204085.1880929177
2351642.884494346	3173972.8181826095
2395407.358720879	3143300.0519444644
2439986.29725955	3112056.460307477
2485394.857429798	3080231.420113841
2531648.478631358	3051771.612878628
2578762.8875937983	3028186.0347172897
2626754.1037238385	3004161.524933137
2675638.4445520453	2979689.9149339893
2725432.531281028	2954762.884108768
2776153.2944368036	2929371.9569984023
2827817.979625338	2903508.5004141005
2880444.1533962977	2877163.720501937
2934049.709215787	2850328.65975289
2988652.873550383	2822994.193957157
3044272.2120643063	2795151.0291018398
3100926.6359319235	2766789.6982108904
3158635.408267819	2737900.5581262046
3217418.1506763715	2716394.964179375
3277294.849923382	2695022.1105312896
3338285.8647317644	2673251.5044400925
3400411.9327037027	2651075.743665144
3463694.1773717343	2628487.2882088306
3528154.1153808828	2605478.457752917
3593813.6638046256	2582041.4290471287
3660695.147596906	2558168.2332491726
3728821.30718283	2533850.753215255
3798215.306190736	2509080.7207401367
3868900.7393279755	2483849.7137458897
3940901.6404034477	2458149.153418273
4014242.490499326	2435379.83349169
4088948.226294856	2416392.5831213486
4165044.248545185	2397051.9767908165
4242556.430717777	2377351.438485556
4321511.127789762	2357284.26981027
4401935.1852088785	2336843.6477113864
4483855.948021181	2316022.6221571527
4567301.270168747	2294814.1137745283
4652299.523960189	2273210.9114421513
4738879.609717651	2251205.6698384546
4827070.965603188	2228790.9069441874
4916903.577628021	2205959.001498457
5008407.989848212	2182702.190407391
5101615.314749833	2165599.112027219
5196557.243827657	2148436.7348671667
5293266.058360566	2130954.9629478836
5391774.640387494	2113147.852278558
5492116.483887789	2095009.348249686
5594325.706169377	2076533.2835744643
5698437.0594691355	2057713.3761918237
5804485.942768984	2038543.2271304703
5912508.413831869	2019016.318333174
6022541.201461928	1999126.0104405354
6134621.717992506	1978865.5405335622
6248788.072006888	1958228.0198341806
6365079.081295578	1940110.3348043642
6483534.286054714	1924894.7835392097
6604193.962330305	1909396.0682759902
6727099.135712336	1893608.919284525
6852291.595284057	1877527.968764051
6979813.907830667	1861147.749018119
7109709.432312423	1844462.6905955272
7242022.334607315	1827467.120396624
7376797.60252773	1810155.2597444241
7514081.061116962	1792521.2224197697
7653919.388230155	1774559.0126599649
7796360.130405221	1756262.5231201565
7941451.71902934	1737625.5327967515
8089243.486805938	1724077.7137277992
8239785.684528512	1710347.2141591404
8393129.498166373	1696361.187657181
8549327.066268368	1682114.878822217
8708431.497690724	1667603.4437557366
8870496.889654402	1652821.9484134635
9035578.34613892	1637765.3669277106
9203731.99661823	1622428.5798985392
9375015.01514529	1606806.3726531104
9549485.639791967	1590893.433472632
9727203.192450536	1574684.3517863238
9908228.099003786	1558173.6163317612
10092621.909870483	1543808.5107036184
10280447.320933098	1531651.6846424602
10471768.194855202	1519268.6179797477
10666649.582795387	1506655.100339389
10865157.746525371	1493806.842989478
11067360.180959744	1480719.477384076
11273325.63710487	1467388.553677865
11483124.14543511	1453809.5392131456
11696827.039703846	1439977.8169786872
11914506.981197748	1425888.6840398952
12136237.983442418	1411537.3499397608
12362095.437367693	1396918.9350700588
12592156.13694151	1382083.0710546577
12826498.3052806	1371324.6563408456
13065201.621247198	1360366.0256986013
13308347.24654076	1349203.4530754269
13556017.853293689	1337833.143076358
13808297.652180923	1326251.2296734804
14065272.421052363	1314453.7748914433
14327029.534098294	1302436.767468505
14593657.991557576	1290196.121492659
14865248.449978571	1277727.6750123848
15141893.25304352	1265027.188621532
15423686.462966273	1252090.3440178817
15710723.892474487	1238912.742534876
16003103.137387017	1227549.3146281354
16300923.609797413	1217854.944053998
16604286.571875297	1207980.1595939212
16913295.17029647	1197921.6037147888
17228054.471313924	1187675.8563992223
17548671.49648152	1177239.433982737
17875255.259042352	1166608.7879692619
18207916.800994623	1155780.3038246084
18546769.230846975	1144750.2997474917
18891927.762076646	1133515.0254176785
19243509.75230332	1122070.6607208375
19601634.743191857	1110413.3144496623
19966424.501097932	1098669.835823079
20338003.0584698	1090096.4684853521
20716496.75602067	1081363.5493226603
