# Frequency (Hz)	Real Part (Ohm)
1000.0	0.0010651119386
1018.6101701559753	0.0010796175088747652
1037.566678745186	0.001094393030280554
1056.875971184804	0.0011094435266538465
1076.5446128423157	0.0011247741153255792
1096.5792912678098	0.0011403900088610833
1116.9868184678226	0.0011562965168324206
1137.7741332214914	0.001172499047623693
1158.9483034398106	0.0011890031102699474
1180.5165285688054	0.001205814316330314
1202.4861420374123	0.0012229383817959907
1224.8646137509306	0.001240381129033745
1247.6595526308697	0.0012581484887655837
1270.8787092020582	0.0012755990717582418
1294.529978227916	0.0012927528610171617
1318.6214013947485	0.0013102258852130094
1343.1611700460153	0.0013280240853622805
1368.1576279674719	0.001346153513044801
1393.619274224142	0.001364620332461323
1419.5547660501015	0.0013834308225294267
1445.9729217920194	0.001402591379018414
1472.882723907502	0.001422108516723945
1500.2933220192183	0.001441988871683134
1528.2140360258693	0.0014622392034308743
1556.654359271062	0.0014828663972981555
1585.6239617711371	0.0015038393885708696
1615.132693503091	0.0015237038718694355
1645.1905877536624	0.0015439380365822476
1675.807864530767	0.0015645487625433286
1706.9949340384078	0.001585543057621585
1738.7624002162504	0.001606928060103551
1771.1210643450886	0.0016287110411204939
1804.0819287193826	0.001650899407120665
1837.6562003881704	0.0016735007023875824
1871.8552949655793	0.0016965226116051643
1906.690840512252	0.0017199729624705993
1942.1746814890264	0.0017438597283558584
1978.3188827841643	0.0017681910310187168
2015.1357338155585	0.0017919833061820051
2052.6377527092523	0.0018153570149849869
2090.8376905557498	0.001839165712485968
2129.748535745521	0.0018634174938986364
2169.3835183851843	0.0018881206050899786
2209.756114795903	0.0019132834453839751
2250.880052095462	0.0019389145704174489
2292.7693128656488	0.001965022695049085
2335.438139906479	0.0019916166963225702
2378.9010410788933	0.0020187056164848827
2423.1727942376006	0.002046298666060758
2468.2684522556924	0.002074405226984361
2514.2033481427966	0.0021029245808242003
2560.9931002584594	0.002129860028477035
2608.6536176225477	0.0021572967493939145
2657.2011053245064	0.002185244072355582
2706.652070033241	0.002213711499752967
2757.0233256095826	0.002242708710818121
2808.3319988231724	0.002272245564915248
2860.5955351757416	0.002302332104892992
2913.831704832789	0.0023329785604991296
2968.0586086656026	0.002364195351858772
3023.2946844057765	0.002395993093017342
3079.5587129142264	0.00242838259554945
3136.8698245668766	0.002461374872234946
3195.2475057592133	0.002493490910454226
3254.711605531848	0.002525034832135764
3315.282342319423	0.0025571657915671835
3376.9803108250912	0.0025898947136208973
3439.8264890229243	0.0026232327264830504
3503.8422452906757	0.0026571911654372326
3569.0493456752292	0.0026917815767185803
3635.4699612933177	0.0027270157214396413
3703.126675869927	0.0027629055795892615
3772.0424934169973	0.0027994633541059194
3842.240846055061	0.0028367014750268578
3913.745601980384	0.0028746326037144207
3986.581073580439	0.0029130341137869422
4060.7720257003657	0.0029492185516382936
4136.343684063274	0.0029860763880350544
4213.321743847289	0.003023620155038742
4291.732378422157	0.003061862617934663
4371.602248248501	0.0031008167795722593
4452.958509942655	0.003140495884786218
4535.828825510186	0.003180913424899843
4620.241371751313	0.0032220831423122715
4706.224849841281	0.003264019035171015
4793.808495089106	0.003306735362131502
4883.02208687788	0.003350246647205167
4973.895958790063	0.003394567684697754
5066.461008921268	0.0034375150733721993
5160.7487103859075	0.003479703819471171
5256.791122018419	0.0035226777053137107
5354.620899273607	0.0035664513424840463
5454.271305329836	0.0036110396144904684
5555.7762223988775	0.0036564576818258875
5659.170163246242	0.003702720987122575
5764.488282925873	0.0037498452604028116
5871.766390733255	0.0037978465244272726
5981.040962380945	0.003846741100142931
6092.349152400711	0.003896545612232359
6205.7288067765	0.003947276994766306
6321.218475812449	0.003998512338808189
6438.8574272404185	0.004046703023002624
6558.685659571435	0.00409579054402985
6680.743915695614	0.004145791592175926
6805.073696735206	0.0041967231683359765
6931.717276155407	0.004248602589794682
7060.717714137772	0.004301447496114323
7192.118872221193	0.004355275855132453
7325.96542821523	0.004410105969071123
7462.302891391108	0.004465956480759864
7601.17761795533	0.004522846379974435
7742.636826811269	0.004580795009893541
7886.728615614156	0.004639822073675752
8033.501977124735	0.004696758547199196
8183.00681586739	0.004752718347151648
8335.293965098195	0.004809719568503111
8490.415204088747	0.004867781592283019
8648.423275731726	0.004926924160205076
8809.37190447399	0.004987167381379621
8973.31581458352	0.005048531739150967
9140.310748756232	0.005111038098061954
9310.413487069076	0.005174707710948102
9483.681866285926	0.0052395622261638295
9660.174799522645	0.005305623694943101
9839.952296278227	0.005372914578897109
10023.075482838643	0.005440697505297931
10209.606623060476	0.0055043707687328
10399.609139541202	0.005569229002434573
10593.1476351837	0.00563529425890155
10790.287915161836	0.005702589001032777
10991.097009294961	0.0057711361097656675
11195.643194838794	0.0058409588918557865
11403.99601970033	0.005912081087801357
11616.22632608502	0.0059845268799153415
11832.40627458378	0.006058320900547653
12052.609368708414	0.006133488240460424
12276.910479883603	0.006210054457359154
12505.385872903913	0.006288045584582557
12738.113231864783	0.0063629313037313435
12975.171686575868	0.0064365955280989645
13216.641839466038	0.0065116306562164735
13462.60579298911	0.006588062200835933
13713.147177539455	0.006665916149506036
13968.351179887397	0.006745218973408206
14228.30457214352	0.006825997636357043
14493.09574126215	0.00690827960396833
14762.81471909391	0.0069920928529976405
15037.553212997384	0.007077465880852705
15317.404637020798	0.00716442771528288
15602.46414366368	0.007253007924248878
15892.828656229764	0.007341991714888744
16188.596901781993	0.0074255116068579355
16489.86944471065	0.007510585818228071
16796.74872092653	0.007597243275147693
17109.339072690134	0.007685513442085873
17427.746784089173	0.0077754263318504675
17752.08011717636	0.007867012515792807
18082.44934877952	0.007960303134202242
18418.96680799711	0.00805532990689423
18761.746914391195	0.008152125143995388
19110.90621689136	0.008250721756929291
19466.56343342263	0.008351153269606705
19828.83949127071	0.008453453829824056
20197.857568198782	0.008551232333005223
20573.743134329114	0.008647526642068321
20956.623994804308	0.008745613004608136
21346.630333242454	0.008845524771044814
21743.8947560008	0.008947295912455445
22148.55233726359	0.0090509610321247
22560.74066496859	0.009156555377310235
22980.599887588487	0.009264114851227183
23408.272761782944	0.009373676025255627
23843.904700937208	0.009485276151375217
24287.643824604504	0.009598953174831318
24739.64100886812	0.009714745747036766
25200.049937640895	0.009830732667532403
25669.027154919517	0.009939549740264415
26146.732118010917	0.010050391917235835
26633.327251749808	0.010163296885981148
27128.978003724646	0.010278303035406267
27633.852900531667	0.010395449468841172
28148.123605075813	0.010514776017335479
28671.964974937695	0.01063632325320138
29205.55512182745	0.010760132503808728
29749.075472144435	0.01088624586563678
30302.71082866393	0.011014706218587366
30866.649433372742	0.011145557240564687
31441.08303147265	0.011278843422326077
32026.206936576502	0.011405652489237094
32622.220097116733	0.011530712170749953
33229.325163989684	0.011658099234215393
33847.72855945983	0.011787856992607622
34477.640547344636	0.011920029564962577
35119.275304507275	0.012054661891379012
35772.850993678774	0.012191799748298565
36438.58983763541	0.012331489764070183
37116.71819475767	0.012473779434804436
37807.466635993485	0.012618717140522474
38511.070023255685	0.012766352161605942
39227.76758927723	0.01291673469555277
39957.803018952654	0.013066920000391682
40701.42453219439	0.013207805683878707
41458.88496832911	0.013351313273907955
42230.441872066716	0.013497491564606317
43016.35758106799	0.013646390258167707
43816.89931514194	0.013798059981752256
44632.33926710397	0.013952552304700223
45462.95469532399	0.014109919756066047
46309.02801799736	0.014270215842478798
47170.84690917023	0.014433495066335046
48048.704396551344	0.014599812944330177
48942.89896114532	0.014769226026334778
49853.73463873894	0.014941791914622134
50781.5211232767	0.015105212736546638
51726.57387216024	0.01526664272096008
52689.21421350677	0.015431076944851714
53669.76945540476	0.015598571317629439
54668.57299720181	0.015769182789184724
55685.96444286408	0.01594296936925621
56722.28971644549	0.016119990147153675
57777.90117970507	0.016300305311848937
58853.1577519145	0.016483976172440875
59948.42503189408	0.01667106517900113
61064.07542232036	0.01686163594380778
62200.48825634718	0.01705575326297426
63358.04992658254	0.017249016855805387
64537.15401646702	0.01743035064886126
65738.20143409586	0.017615059094660934
66961.60054853215	0.01780320499606618
68207.76732865692	0.01799485232471075
69477.1254846024	0.018190066242751313
70770.10661181889	0.01838891312502343
72087.15033782135	0.01859146058160961
73428.70447166759	0.018797777480827522
74795.22515621828	0.019007933972645955
76187.17702322999	0.019222001512536488
77605.0333513357	0.01944005288576925
79049.2762269642	0.019662162232160624
80520.39670825469	0.019871530752689593
82018.8949920221	0.020078733954045396
83545.28058382872	0.020289793242235267
85100.07247122246	0.020504780379691355
86683.79930019773	0.020723768464356845
88296.99955494082	0.020946831954540085
89940.22174092053	0.021174046694231254
91614.0245713852	0.021405489938889993
93318.9771573324	0.02164124038171328
95055.65920101192	0.02188137818039186
96824.66119303115	0.02212598498436473
98626.5846131283	0.022375143962580866
100462.04213468132	0.02262242161512778
102331.65783302448	0.02285456523821703
104236.06739764012	0.023091029093632597
106175.9183482999	0.023331893581633185
108151.87025522892	0.023577240598740022
110164.59496336569	0.023827153565582456
112214.77682079801	0.024081717455262004
114303.11291144785	0.024341018822244063
116430.31329208757	0.024605145831787332
118597.10123376705	0.024874188289921023
120804.21346773289	0.02514823767397973
123052.40043592616	0.025427387163706912
125342.42654613995	0.02571173167293687
127675.07043192645	0.025978554200031163
130051.12521734099	0.02624317067904573
132471.39878661174	0.026512711715760803
134936.71405883064	0.026787268957033157
137447.90926775365	0.027066935755283156
140005.8382468096	0.027351807200235546
142611.37071941295	0.027641980151251123
145265.39259467812	0.02793755327025973
147968.80626863963	0.028238627055306623
150722.53093107554	0.028545303874722733
153527.5028780421	0.028857688001931073
156384.67583022476	0.02917588565090082
159295.0212572123	0.029490670621822788
162259.5287078087	0.02978647686740714
165279.2061464897	0.03008778811755505
168355.08029612005	0.03039470682133805
171488.19698705408	0.030707337334422574
174679.62151272455	0.031025785954551525
177930.43899185772	0.031350160957687
181241.75473742394	0.03168057263482522
184614.69463245454	0.03201713332949641
188050.40551285836	0.03235995747596334
191550.0555573528	0.03270916163812955
195114.83468466165	0.03306486454917285
198745.9549580986	0.03342718715191567
202444.65099768018	0.03376571193398254
206212.18039991445	0.03410221932039251
210049.8241653915	0.034444989166522264
213958.88713434213	0.03479413801781283
217940.6984302958	0.03514978458863573
221996.61191199525	0.03551204980265694
226128.00663372793	0.035881056833952756
230336.2873142131	0.036256931148889705
234622.88481422624	0.03663980054878489
238989.25662310526	0.03702979521335969
243436.8873543108	0.03742704774500205
247967.289250216	0.03783169321385327
252582.00269627848	0.03823072522934714
257282.59674479323	0.038606229789712766
262070.66964838552	0.03898872255384118
266947.8494034318	0.03937833357339337
271915.7943036019	0.03977519532031416
276976.1935036891	0.040179442731873495
282130.76759394706	0.040591213256547055
287381.2691851069	0.04101064690075006
292729.4835042813	0.04143788627644074
298177.22900196735	0.04187307664961043
303726.3579703311	0.04231636598967501
309378.75717301364	0.042767905019786535
315136.34848664823	0.04322784726808054
321001.08955431683	0.0436558362633703
326974.97445117676	0.044082354576337246
333060.03436245886	0.0445168104676831
339258.33827409917	0.04495935165709216
345571.9936762143	0.045410128613337215
352003.1472796675	0.045869294605440265
358553.9857459817	0.04633700575478631
365226.7364308175	0.04681342108820547
372023.6681413066	0.04729870259204449
378947.09190746717	0.04779301526724353
385999.36176797637	0.04829652718543818
393182.87557057705	0.04880940954610611
400500.07578736113	0.04931359517874791
407953.45034524484	0.04978892637270718
415545.53347188793	0.05027310356106656
423278.90655735444	0.05076629136928683
431156.19903182285	0.05126865748653703
439180.0892596086	0.0517803727227098
447353.3054498463	0.05230161106649916
455678.6265841068	0.05283254974455832
464158.8833612772	0.05337336928175841
472796.9591600391	0.053924253562569614
481595.79101923504	0.05448538989358289
490558.37063650455	0.05505696906719704
499687.7453854889	0.05563918542648981
508987.0193519675	0.05617891199765466
518459.3543892913	0.056718240607539064
528107.971193433	0.057267606214623346
537936.1503980698	0.057827195609133304
547947.2336900292	0.05839719905749264
558144.6249454955	0.058977810367015285
568531.7913873753	0.05956922695180279
579112.2647641759	0.06017164989986618
589889.6425508494	0.060785284041498897
600867.5891719692	0.061410338018920964
612049.837247669	0.06204702435721942
623440.1888627863	0.06269555953660969
635042.5168595961	0.0633311484655614
646860.7661546321	0.06393167777947267
658898.9550799957	0.06454338304609958
671161.1767496272	0.06516647225182357
683651.6004510238	0.06580115725368857
696374.4730628222	0.06644765385143368
709334.1204987989	0.06710618186086807
722534.9491787221	0.06777696518861057
735981.4475265755	0.06846023190822002
749678.1874966878	0.06915621433774347
763629.8261282243	0.06986514911870584
777841.1071286482	0.0705872772965714
792316.8624866261	0.07132284440270155
807062.0141149492	0.07200233420354962
822081.575524054	0.07268324435383067
837380.6535266489	0.0733768263578693
852964.4499741016	0.07408331604102021
868838.2635251193	0.0748029536173881
885007.4914473438	0.07553598377150274
901477.6314524917	0.07628265574151491
918254.2835656281	0.07704322340393972
935343.1520292377	0.07781794535997738
952750.0472427299	0.07860708502344055
970480.8877380306	0.0794109107103175
988541.7021919573	0.08022969573000298
1006938.6314760271	0.08102973461418406
1025677.9307444209	0.08178749777387131
1044765.9715608053	0.0825593630348984
1064209.2440647245	0.08334559283977053
1084014.359178331	0.08414645451509307
1104188.0508541602	0.08496222036246477
1124737.1783647507	0.08579316775106345
1145668.7286348727	0.08663957921195475
1166989.8186171474	0.0875017425341551
1188707.6977119034	0.08837995086248385
1210829.7502320393	0.08927450279723514
1233363.4979137746	0.09018570249570557
1256316.6024741214	0.09111385977561069
1279696.8682159416	0.09196840866588588
1303512.2446815087	0.09282723409374945
1327770.829355429	0.09370204240895987
1352480.8704178738	0.09459313105577019
1377650.769549055	0.09550080301392182
1403289.084785873	0.09642536690166034
1429404.533431761	0.09736713708066976
1456005.9950206485	0.09832643376295838
1483102.514336103	0.09930358311973446
1510703.3044866556	0.10029891739230803
1538817.7500383465	0.10131277500505619
1567455.410205595	0.10234550068049149
1596626.022101425	0.1033516117142936
1626339.5040481905	0.10430705892741395
1656605.9589499151	0.10528028717574564
1687435.6777273756	0.10627162736737926
1718839.1428171454	0.10728141656866165
1750827.0317357269	0.10830999811880168
1783410.220710006	0.10935772174660889
1816599.7883753285	0.11042494368940627
1850407.019542302	0.11151202681415315
1884843.4090337954	0.11261934074082527
1919920.6655932867	0.11374726196808899
1955650.715865947	0.11489617400131437
1992045.7084538713	0.11606646748297257
2029118.0180466783	0.11714050593157788
2066880.2496290822	0.11822310937188737
2105345.242766708	0.1193258602464326
2144526.0759716653	0.12044913350239249
2184436.0711494284	0.1215933110647777
2225088.7981283693	0.12275878196628745
2266498.079273693	0.12394594247958612
2308677.994187172	0.12515519625203986
2351642.884494346	0.12638695444296047
2395407.358720879	0.12764163586340535
2439986.29725955	0.1289196671185762
2485394.857429798	0.13022148275287035
2531648.478631358	0.13148605546172218
2578762.8875937983	0.13269022641725126
2626754.1037238385	0.1339168071991598
2675638.4445520453	0.13516621485812966
2725432.531281028	0.13643887420622708
2776153.2944368036	0.13773521796134333
2827817.979625338	0.13905568689432266
2880444.1533962977	0.14040072997883074
2934049.709215787	0.14177080454400842
2988652.873550383	0.14316637642997046
3044272.2120643063	0.14458792014619531
3100926.6359319235	0.14603591903286292
3158635.408267819	0.14751086542519745
3217418.1506763715	0.14886027535891805
3277294.849923382	0.15022450467305082
3338285.8647317644	0.15161412252685158
3400411.9327037027	0.1530296014053631
3463694.1773717343	0.15447142258665614
3528154.1153808828	0.15594007630546738
3593813.6638046256	0.15743606191988596
3660695.147596906	0.15895988808113992
3728821.30718283	0.16051207290654257
3798215.306190736	0.16209314415565984
3868900.7393279755	0.16370363940975172
3940901.6404034477	0.16534410625455767
4014242.490499326	0.16693302886260072
4088948.226294856	0.16845028012932423
4165044.248545185	0.16999576770029118
4242556.430717777	0.17157001705792763
4321511.127789762	0.17317356346397753
4401935.1852088785	0.17480695214149727
4483855.948021181	0.17647073846023614
4567301.270168747	0.17816548812547028
4652299.523960189	0.179891777370346
4738879.609717651	0.1816501931518073
4827070.965603188	0.18344133335016674
4916903.577628021	0.18526580697239048
5008407.989848212	0.1871242343591693
5101615.314749833	0.1888192517508408
5196557.243827657	0.19053802823225685
5293266.058360566	0.19228879143645233
5391774.640387494	0.19407213664178027
5492116.483887789	0.19588867020482664
5594325.706169377	0.19773900976657516
5698437.0594691355	0.1996237844624141
5804485.942768984	0.20154363513604853
5912508.413831869	0.20349921455739295
6022541.201461928	0.2054911876445225
6134621.717992506	0.2075202316897495
6248788.072006888	0.20958703658991207
6365079.081295578	0.21158312257499223
6483534.286054714	0.21349456287385607
6604193.962330305	0.21544157540192513
6727099.135712336	0.21742482216443718
6852291.595284057	0.21944497748666086
6979813.907830667	0.22150272824317296
7109709.432312423	0.22359877409140172
7242022.334607315	0.22573382770952133
7376797.60252773	0.22790861503876597
7514081.061116962	0.23012387553026092
7653919.388230155	0.2323803623964427
7796360.130405221	0.23467884286715826
7941451.71902934	0.23702009845053457
8089243.486805938	0.23914896157590873
8239785.684528512	0.2413141731906838
8393129.498166373	0.2435196797620337
8549327.066268368	0.2457662311859561
8708431.497690724	0.24805459131414231
8870496.889654402	0.25038553821369197
9035578.34613892	0.25275986443166676
9203731.99661823	0.2551783772645642
9375015.01514529	0.25764189903280604
9549485.639791967	0.2601512673603377
9727203.192450536	0.2627073354594287
9908228.099003786	0.26531097242077417
10092621.909870483	0.26781826886512367
10280447.320933098	0.270226090763417
10471768.194855202	0.27267872263694287
10666649.582795387	0.2751769984069651
10865157.746525371	0.2777217675141639
11067360.180959744	0.2803138952074557
11273325.63710487	0.28295426283818537
11483124.14543511	0.28564376815979714
11696827.039703846	0.2883833256330796
11914506.981197748	0.291173866737092
12136237.983442418	0.29401634028587753
12362095.437367693	0.2969117127510694
12592156.13694151	0.2998569245260413
