# Frequency (Hz)	Real Part (Ohm/m)
1000.0	-92266.47343978977
1018.6101701559753	-93983.56820995988
1037.566678745186	-95732.61840597683
1056.875971184804	-97514.21872375294
1076.544612842316	-99328.97492659293
1096.5792912678098	-101177.5040511592
1116.9868184678226	-103060.43461727198
1137.7741332214914	-104978.40684161212
1158.9483034398106	-106932.07285540155
1180.5165285688056	-108922.09692613567
1202.4861420374123	-110949.15568344052
1224.8646137509306	-113013.93834913494
1247.6595526308697	-115117.1469715732
1270.8787092020582	-117259.49666434841
1294.529978227916	-119441.71584943992
1318.6214013947485	-121664.54650488347
1343.1611700460153	-123928.74441705273
1368.1576279674719	-126235.07943763437
1393.6192742241421	-128584.33574538569
1419.5547660501015	-130977.31211276428
1445.9729217920196	-133414.82217751897
1472.8827239075017	-135897.69471933556
1500.2933220192183	-138426.77394163114
1528.2140360258693	-141002.91975859148
1556.654359271062	-143627.00808755215
1585.6239617711371	-146299.9311468189
1615.1326935030913	-149022.59775903268
1645.1905877536624	-151795.93366017754
1675.8078645307671	-154620.88181434246
1706.994934038408	-157498.40273433828
1738.7624002162504	-160429.47480828248
1771.1210643450886	-163415.0946322623
1804.0819287193829	-166456.2773491874
1837.6562003881704	-169554.05699394978
1871.8552949655793	-172709.48684500708
1906.690840512252	-175923.63978250773
1942.1746814890264	-179197.60865308266
1978.3188827841643	-182532.5066414242
2015.1357338155585	-185929.46764878178
2052.6377527092523	-189389.64667849938
2090.83769055575	-192914.2202287301
2129.748535745521	-196504.3866924581
2169.3835183851843	-200161.36676496413
2209.756114795903	-203886.4038588767
2250.880052095462	-207680.76452694414
2292.7693128656488	-211545.7388926774
2335.438139906479	-215482.6410890057
2378.9010410788933	-219492.80970509493
2423.1727942376006	-223577.60824148377
2468.2684522556924	-227738.42557368756
2514.2033481427966	-231976.67642443173
2560.9931002584594	-236293.8018446721
2608.6536176225477	-240691.26970356755
2657.201105324507	-245170.5751875728
2706.652070033241	-249733.2413088156
2757.0233256095826	-254380.81942293968
2808.3319988231724	-259114.88975658113
2860.595535175742	-263937.0619446618
2913.8317048327885	-268848.9755776842
2968.058608665602	-273852.3007592083
3023.2946844057765	-278948.73867370636
3079.5587129142264	-284140.0221649827
3136.8698245668766	-289427.9163253595
3195.2475057592137	-294814.21909582795
3254.711605531848	-300300.76187736605
3315.282342319423	-305889.41015363677
3376.9803108250912	-311582.064125271
3439.8264890229248	-317380.65935595613
3503.8422452906757	-323287.16743055015
3569.0493456752297	-329303.5966254398
3635.4699612933177	-335431.9925913778
3703.126675869927	-341674.4390490253
3772.0424934169973	-348033.05849743896
3842.240846055061	-354510.0129357449
3913.745601980384	-361107.50459823984
3986.581073580439	-367827.7767031766
4060.7720257003652	-374673.11421548104
4136.343684063274	-381645.84462366404
4213.321743847289	-388748.3387311956
4291.732378422157	-395983.0114625997
4371.602248248502	-403352.32268455793
4452.958509942656	-410858.7780422898
4535.828825510186	-418504.9298114965
4620.241371751313	-426293.3777661673
4706.224849841282	-434226.77006252494
4793.808495089107	-442307.8041394319
4883.02208687788	-450539.2276355469
4973.895958790063	-458923.8393235499
5066.461008921268	-467464.490061759
5160.7487103859075	-476164.08376344835
5256.791122018419	-485025.5783842139
5354.620899273607	-494051.98692770896
5454.271305329837	-503246.37847009563
5555.7762223988775	-512611.87920356606
5659.170163246243	-522151.67349928257
5764.488282925873	-531869.0049900953
5871.766390733255	-541767.1776734146
5981.040962380944	-551849.5570346037
6092.349152400711	-562119.5711912811
6205.7288067765	-572580.7120589186
6321.218475812449	-583236.5365381283
6438.857427240419	-594090.6677240488
6558.685659571435	-605146.7961382348
6680.743915695614	-616408.6809834745
6805.073696735207	-627880.1514219613
6931.7172761554075	-639565.1078772479
7060.717714137772	-651467.5233604318
7192.118872221193	-663591.4448210257
7325.9654282152305	-675940.9945229586
7462.302891391108	-688520.3714461935
7601.17761795533	-701333.852714427
7742.63682681127	-714385.7950493521
7886.728615614156	-727680.6362519967
8033.501977124734	-741222.8967116185
8183.006815867389	-755017.1809426905
8335.293965098195	-769068.1791504835
8490.415204088747	-783380.6688257838
8648.423275731726	-797959.5163692978
8809.37190447399	-812809.678746274
8973.31581458352	-827936.2051719296
9140.310748756232	-843344.2388282365
9310.413487069076	-859039.018612655
9483.681866285928	-875025.8809194233
9660.174799522645	-891310.2614539799
9839.952296278227	-907897.6970811692
10023.075482838643	-924793.8277078315
10209.606623060476	-942004.3982004357
10399.609139541202	-959535.2603383866
10593.147635183701	-977392.3748037061
10790.287915161836	-995581.8132077198
10991.097009294961	-1014109.7601554734
11195.643194838794	-1032982.5153485682
11403.996019700331	-1052206.4957271158
11616.226326085018	-1071788.2376515835
11832.40627458378	-1091734.3991252168
12052.609368708414	-1112051.762057832
12276.910479883603	-1132747.2345717466
12505.385872903913	-1153827.853350601
12738.113231864785	-1175300.7860319233
12975.171686575868	-1197173.3336441927
13216.641839466038	-1219452.933089271
13462.60579298911	-1242147.1596710314
13713.147177539457	-1265263.7296710347
13968.351179887397	-1288810.5029721605
14228.30457214352	-1312795.4857310443
14493.095741262152	-1337226.8331002593
14762.81471909391	-1362112.8520011574
15037.553212997384	-1387462.0039483036
15317.404637020798	-1413282.907926496
15602.46414366368	-1439584.3433213027
15892.828656229764	-1466375.2529041544
16188.596901781992	-1493664.7458729786
16489.86944471065	-1521462.1009494204
16796.74872092653	-1549776.7695337203
17109.339072690134	-1578618.3789182846
17427.746784089173	-1607996.7355610675
17752.08011717636	-1637921.8284198786
18082.44934877952	-1668403.8323487225
18418.96680799711	-1699453.1115573775
18761.746914391195	-1731080.2231353254
19110.90621689136	-1763295.9206412816
19466.563433422634	-1796111.1577595202
19828.839491270715	-1829537.0920242344
20197.857568198782	-1863585.0886132373
20573.743134329117	-1898266.724212232
20956.623994804308	-1933593.790951011
21346.630333242454	-1969578.3004129152
21743.8947560008	-2006232.4877188795
22148.552337263594	-2043568.8156875374
22560.74066496859	-2081599.9790726912
22980.599887588487	-2120338.9088796712
23408.272761782944	-2159798.7767620254
23843.904700937204	-2199992.9994999985
24287.643824604504	-2240935.2435624115
24739.641008868115	-2282639.4297533934
25200.049937640895	-2325119.737945606
25669.02715491952	-2368390.61190156
26146.73211801092	-2412466.764184626
26633.327251749808	-2457363.1811615005
27128.978003724646	-2503095.1280977083
27633.85290053167	-2549678.154347963
28148.123605075813	-2597128.098643121
28671.9649749377	-2645461.0944754984
29205.555121827452	-2694693.5755844633
29749.075472144435	-2744842.281544073
30302.71082866393	-2795924.2634546817
30866.649433372746	-2847956.889740563
31441.083031472648	-2900957.852055281
32026.206936576502	-2954945.171297106
32622.220097116733	-3009937.2037362927
33229.325163989684	-3065952.6472563827
33847.72855945983	-3123010.547711756
34477.64054734464	-3181130.3054033425
35119.275304507275	-3240331.681674991
35772.850993678774	-3300634.805632531
36438.58983763541	-3362060.1809878433
37116.71819475767	-3424628.693030427
37807.46663599349	-3488361.6157285227
38511.07002325569	-3553280.6189625673
39227.76758927724	-3619407.7758931606
39957.803018952654	-3686765.5704661487
40701.42453219439	-3755376.905057486
41458.88496832911	-3825265.10826019
42230.44187206672	-3896453.9428163897
43016.357581068	-3968967.613696897
43816.89931514195	-4042830.7763311155
44632.33926710398	-4118068.5449902145
45462.95469532399	-4194706.501326216
46309.02801799737	-4272770.703070036
47170.84690917022	-4352287.692891408
48048.70439655134	-4433284.507423638
48942.898961145314	-4515788.686456404
49853.73463873893	-4599828.282299549
50781.5211232767	-4685431.869321176
51726.57387216025	-4772628.553663245
52689.21421350677	-4861447.9831379475
53669.76945540476	-4951920.357308332
54668.57299720181	-5044076.437756442
55685.96444286409	-5137947.558542599
56722.28971644549	-5233565.636859328
57777.90117970507	-5330963.18388351
58853.15775191451	-5430173.3158305865
59948.42503189409	-5531229.765214394
61064.07542232036	-5634166.89231659
62200.48825634718	-5739019.696869539
63358.04992658254	-5845823.829956541
64537.15401646702	-5954615.606133652
65738.20143409586	-6065432.015776988
66961.60054853215	-6178310.73765986
68207.76732865692	-6293290.1517639775
69477.1254846024	-6410409.3523289915
70770.10661181889	-6529708.161145051
72087.15033782135	-6651227.141092587
73428.70447166757	-6775007.609934124
74795.2251562183	-6901091.654362806
76187.17702322999	-7029522.144312241
77605.0333513357	-7160342.747532851
79049.2762269642	-7293597.944439305
80520.3967082547	-7429333.043234356
82018.89499202212	-7567594.195314136
83545.28058382872	-7708428.410960068
85100.07247122246	-7851883.575322952
86683.79930019774	-7998008.464704384
88296.99955494083	-8146852.763141228
89940.22174092053	-8298467.079298744
91614.0245713852	-8452902.963678014
93318.97715733238	-8610212.926143775
95055.6592010119	-8770450.453778252
96824.66119303113	-8933670.02906738
98626.5846131283	-9099927.148425441
100462.04213468131	-9269278.341064382
102331.6578330245	-9441781.18821445
104236.06739764012	-9617494.342702372
106175.9183482999	-9796477.548893955
108151.87025522892	-9978791.663007844
110164.59496336569	-10164498.673807215
112214.77682079803	-10353661.723676715
114303.11291144787	-10546345.13009151
116430.31329208757	-10742614.407485917
118597.10123376705	-10942536.289529046
120804.21346773289	-11146178.751814881
123052.40043592616	-11353611.034974838
125342.42654613995	-11564903.66822024
127675.07043192645	-11780128.493323047
130051.12521734099	-11999358.68904283
132471.39878661174	-12222668.796008259
134936.71405883064	-12450134.742061865
137447.90926775365	-12681833.86807622
140005.8382468096	-12917844.954250691
142611.37071941298	-13158248.246897593
145265.39259467812	-13403125.485726688
147968.80626863963	-13652559.931637717
150722.53093107554	-13906636.395029902
153527.5028780421	-14165441.264638456
156384.6758302248	-14429062.536907645
159295.0212572123	-14697589.84591047
162259.5287078087	-14971114.493825357
165279.2061464897	-15249729.481979834
168355.08029612005	-15533529.542471804
171488.19698705408	-15822611.17037987
174679.62151272458	-16117072.65657224
177930.43899185772	-16417014.121127024
181241.75473742394	-16722537.547374045
184614.69463245457	-17033746.81657009
188050.40551285836	-17350747.74322006
191550.05555735278	-17673648.111054555
195114.83468466165	-18002557.709677875
198745.9549580986	-18337588.371897545
202444.65099768018	-18678854.01174852
206212.18039991445	-19026470.663225576
210049.82416539153	-19380556.519735646
213958.88713434216	-19741231.974285185
217940.6984302958	-20108619.660415012
221996.61191199525	-20482844.49389685
226128.00663372796	-20864033.715206455
230336.28731421314	-21252316.932786215
234622.88481422624	-21647826.16711385
238989.25662310526	-22050695.895590615
243436.8873543108	-22461063.098264944
247967.289250216	-22879067.304407556
252582.00269627848	-23304850.639952358
257282.5967447932	-23738557.87582122
262070.66964838552	-24180336.47714754
266947.8494034318	-24630336.653415702
271915.7943036019	-25088711.409534536
276976.1935036891	-25555616.597859897
282130.76759394706	-26031210.971186697
287381.2691851069	-26515656.236726385
292729.4835042813	-27009117.111088924
298177.22900196735	-27511761.376288775
303726.35797033116	-28023759.936791856
309378.7571730137	-28545286.87762552
315136.34848664823	-29076519.523569085
321001.08955431683	-29617638.499445938
326974.9744511768	-30168827.79153863
333060.03436245886	-30730274.810145237
339258.33827409917	-31302170.45330168
345571.9936762143	-31884709.1716888
352003.14727966755	-32478089.034747414
358553.9857459817	-33082511.798024803
365226.7364308176	-33698182.97177287
372023.6681413066	-34325311.89082451
378947.09190746717	-34964111.785769515
385999.3617679763	-35614799.85545492
393182.87557057705	-36277597.34083577
400500.07578736113	-36952729.60019844
407953.4503452449	-37640426.185785644
415545.53347188793	-38340920.92184639
423278.90655735444	-39054451.984138414
431156.19903182285	-39781261.980911456
439180.0892596086	-40521598.03539541
447353.3054498463	-41275711.86982592
455678.6265841069	-42043859.891032234
464158.8833612772	-42826303.277618006
472796.9591600391	-43623308.06876573
481595.7910192351	-44435145.25469175
490558.37063650455	-45262090.868786804
499687.7453854889	-46104426.08146999
508987.01935196744	-46962437.2957894
518459.3543892913	-47836416.244803235
528107.971193433	-48726660.09077083
537936.1503980698	-49633471.52619222
547947.2336900292	-50557158.87672626
558144.6249454955	-51498036.206024475
568531.7913873753	-52456423.42251704
579112.2647641759	-53432646.388183735
589889.6425508494	-54427037.02935166
600867.5891719693	-55439933.44955334
612049.837247669	-56471680.04448512
623440.1888627864	-57522627.61910666
635042.5168595962	-58593133.50691682
646860.7661546321	-59683561.691452056
658898.9550799957	-60794282.930044524
671161.1767496273	-61925674.8798828
683651.6004510239	-63078122.22642091
696374.4730628222	-64252016.81417377
709334.1204987989	-65447757.77994988
722534.9491787221	-66665751.688561715
735981.4475265756	-67906412.67106147
749678.1874966876	-69170162.56555171
763629.8261282241	-70457431.06061286
777841.1071286482	-71768655.84140351
792316.8624866261	-73104282.73847757
807062.014114949	-74464765.87937076
822081.5755240541	-75850567.84301065
837380.653526649	-77262159.8169962
852964.4499741016	-78700021.75780842
868838.2635251193	-80164642.55400008
885007.4914473438	-81656520.19242275
901477.6314524917	-83176161.92754833
918254.2835656282	-84724084.45394072
935343.1520292377	-86300814.08193752
952750.04724273	-87906886.91660155
970480.8877380306	-89542849.0400013
988541.7021919574	-91209256.69688632
1006938.6314760271	-92906676.48381515
1025677.9307444209	-94635685.54180484
1044765.9715608052	-96396871.75256519
1064209.2440647245	-98190833.93838389
1084014.359178331	-100018182.0657341
1104188.0508541602	-101879537.45266847
1124737.1783647507	-103775532.98007444
1145668.7286348727	-105706813.30686066
1166989.8186171474	-107674035.08914699
1188707.6977119034	-109677867.20353623
1210829.7502320395	-111718990.97453831
1233363.4979137748	-113798100.40622805
1256316.6024741214	-115915902.41821471
1279696.8682159416	-118073117.0860009
1303512.244681509	-120270477.88581754
1327770.8293554292	-122508731.94401282
1352480.870417874	-124788640.2910834
1377650.769549055	-127110978.1204333
1403289.084785873	-129476535.05194679
1429404.533431761	-131886115.40046935
1456005.9950206485	-134340538.44928247
1483102.5143361029	-136840638.7286687
1510703.3044866556	-139387266.2996616
1538817.7500383463	-141981287.04307428
1567455.410205595	-144623582.95391005
1596626.022101425	-147315052.4412489
1626339.5040481905	-150056610.6337167
1656605.9589499151	-152849189.69063917
1687435.6777273756	-155693739.11898467
1718839.1428171457	-158591226.09620875
1750827.0317357269	-161542635.79910403
1783410.2207100063	-164548971.73876956
1816599.7883753285	-167611256.10181892
1850407.019542302	-170730530.09793028
1884843.4090337954	-173907854.3138724
1919920.6655932867	-177144309.07411426
1955650.715865947	-180440994.80814558
1992045.7084538713	-183799032.42463875
2029118.018046678	-187219563.69256467
2066880.2496290822	-189970489.1354097
2105345.242766708	-192039047.44677812
2144526.0759716653	-194146101.98029825
2184436.0711494284	-196292369.1572155
2225088.7981283693	-198478578.73149514
2266498.079273693	-200705474.03794873
2308677.994187172	-202973812.24497533
2351642.884494346	-205284364.61200532
2395407.3587208795	-207637916.7517407
2439986.29725955	-210035268.8972672
2485394.8574297987	-212477236.17414573
2531648.478631358	-214964648.87756255
2578762.8875937983	-217498352.75463754
2626754.1037238385	-220079209.2919903
2675638.4445520453	-222708096.00865117
2725432.531281028	-225385906.75442976
2776153.294436804	-228113552.01383322
2827817.979625338	-230891959.2156386
2880444.1533962977	-233722073.0482328
2934049.7092157872	-236604855.78081205
2988652.8735503824	-239541287.5905673
3044272.212064306	-242532366.89595386
3100926.6359319235	-245579110.69616306
3158635.408267819	-248682554.91691643
3217418.1506763715	-251843754.76268727
3277294.849923382	-255063785.07548496
3338285.8647317644	-258343740.70031154
3400411.9327037027	-261684736.8574195
3463694.1773717343	-265087909.52150244
3528154.115380883	-268554415.8079337
3593813.6638046256	-272085434.36620224
3660695.147596906	-275682165.78066456
3728821.30718283	-279345832.9787544
3798215.306190736	-283077681.64679646
3868900.7393279755	-286878980.6535467
3940901.6404034477	-290751022.4816263
4014242.490499326	-294695123.666978
4088948.226294856	-298712625.24650055
4165044.248545185	-298787548.77528185
4242556.430717777	-298468162.58047193
4321511.127789762	-298142832.55423105
4401935.185208879	-297811448.0808449
4483855.948021182	-297473896.4860222
4567301.270168747	-297130062.9985832
4652299.523960189	-296779830.7114378
4738879.609717651	-296423080.54183435
4827070.965603188	-296059691.1908716
4916903.577628021	-295689539.10225445
5008407.989848212	-295312498.4202844
5101615.314749834	-294928440.94706744
5196557.243827658	-294537236.0989241
5293266.058360566	-294138750.861991
5391774.640387494	-293732849.7469939
5492116.483887789	-293319394.7431802
5594325.706169377	-292898245.2713937
5698437.059469136	-292469258.13627625
5804485.942768984	-292032287.47757936
5912508.413831869	-291587184.7205712
6022541.201461928	-291133798.52551794
6134621.717992506	-290671974.73622847
6248788.072006888	-284995420.4275061
6365079.081295578	-278766776.4700944
6483534.286054714	-272422216.38879585
6604193.962330305	-265959582.964818
6727099.135712337	-259376678.83316493
6852291.595284058	-252671265.7355014
6979813.907830667	-245841063.7591235
7109709.432312424	-238883750.56176692
7242022.334607315	-231796960.5819777
7376797.602527731	-224578284.2348056
7514081.061116962	-217225267.09251183
7653919.388230155	-209735409.05003935
7796360.130405221	-202106163.47495395
7941451.71902934	-194334936.34155285
8089243.486805938	-186419085.34887925
8239785.684528511	-177431429.35848412
8393129.498166373	-166293411.7415089
8549327.066268368	-154948113.72148404
8708431.497690724	-143391677.77483368
8870496.889654404	-131620174.58882086
9035578.34613892	-119629601.72552474
9203731.99661823	-107415882.26097374
9375015.015145289	-94974863.39895146
9549485.639791965	-82302315.05899319
9727203.192450536	-69393928.43811847
9908228.099003788	-56245314.545790076
10092621.909870485	-42852002.71160879
10280447.320933098	-29882536.348140687
10471768.194855202	-19103978.456616387
10666649.582795387	-8124829.768694729
10865157.746525373	3058642.744476996
11067360.180959744	14450241.584054623
11273325.63710487	26053840.01638422
11483124.145435112	37873383.38996113
11696827.039703846	49912890.4768861
11914506.981197748	62176454.83929299
12136237.983442418	74668246.2212043
12362095.43736769	84501193.88459836
12592156.13694151	88607603.77163713
12826498.3052806	92790434.64540389
13065201.621247198	97051108.71346505
13308347.24654076	101391074.65091252
13556017.853293689	105811808.09292653
13808297.652180923	110314812.13651063
14065272.421052365	114901617.8515589
14327029.534098294	119573784.80143654
14593657.991557576	114519500.43799904
14865248.449978571	109070993.88299753
15141893.25304352	103521089.69391155
15423686.462966274	97867900.84351724
15710723.89247449	92109505.18669328
16003103.137387017	86243944.80686978
16300923.60979741	80269225.35031822
16604286.571875297	70182755.68398626
