# Frequency (Hz)	Imaginary Part (Ohm/m)
1000.0	299428191.1523883
1018.6101701559753	298102100.79084677
1037.566678745186	296751331.6620347
1056.875971184804	295375424.48989415
1076.544612842316	293973911.4511611
1096.5792912678098	292546316.0163015
1116.9868184678226	291092152.7874853
1137.7741332214914	289610927.33354616
1158.9483034398106	288102136.0218699
1180.5165285688056	286565265.8471534
1202.4861420374123	284999794.256978
1224.8646137509306	283405188.9741349
1247.6595526308697	282291414.8666128
1270.8787092020582	281193879.23822385
1294.529978227916	280075918.28503823
1318.6214013947485	278937151.88828623
1343.1611700460153	277777192.85512275
1368.1576279674719	276595646.78697807
1393.6192742241421	275392111.9454581
1419.5547660501015	274166179.1157488
1445.9729217920196	272917431.4674789
1472.8827239075017	271645444.4129928
1500.2933220192183	270349785.4629864
1528.2140360258693	269030014.0794563
1556.654359271062	267938866.49344575
1585.6239617711371	266932341.63488424
1615.1326935030913	265907085.1774386
1645.1905877536624	264862748.52286643
1675.8078645307671	263798976.58545256
1706.994934038408	262715407.67127618
1738.7624002162504	261611673.35523134
1771.1210643450886	260487398.35575786
1804.0819287193829	259342200.40724212
1837.6562003881704	258175690.13004223
1871.8552949655793	256987470.8980949
1906.690840512252	255777138.70405847
1942.1746814890264	254655505.29364273
1978.3188827841643	253632317.3979272
2015.1357338155585	252590087.8013708
2052.6377527092523	251528462.1346809
2090.83769055575	250447079.43369204
2129.748535745521	249345572.0166339
2169.3835183851843	248223565.35911635
2209.756114795903	247080677.96678618
2250.880052095462	245916521.24561572
2292.7693128656488	244730699.36977604
2335.438139906479	243522809.14705226
2378.9010410788933	242292439.88175386
2423.1727942376006	241080395.68331984
2468.2684522556924	239963847.19555178
2514.2033481427966	238826519.5504389
2560.9931002584594	237668026.04432735
2608.6536176225477	236487972.77694255
2657.201105324507	235285958.51745853
2706.652070033241	234061574.56807566
2757.0233256095826	232814404.62505847
2808.3319988231724	231544024.63718835
2860.595535175742	230250002.66158125
2913.8317048327885	228931898.71682242
2968.058608665602	227589264.63336846
3023.2946844057765	226226975.80386475
3079.5587129142264	224981664.62728646
3136.8698245668766	223713177.99781495
3195.2475057592137	222421084.61632842
3254.711605531848	221104945.157155
3315.282342319423	219764312.1186974
3376.9803108250912	218398729.6712773
3439.8264890229248	217007733.5021488
3503.8422452906757	215590850.6576264
3569.0493456752297	214147599.38227648
3635.4699612933177	212677488.95511442
3703.126675869927	211180019.5227547
3772.0424934169973	209654681.92945555
3842.240846055061	208261169.5402259
3913.745601980384	206879092.80896336
3986.581073580439	205471295.3945634
4060.7720257003652	204037298.63073623
4136.343684063274	202576614.94313118
4213.321743847289	201088747.6835557
4291.732378422157	199573190.9611101
4371.602248248502	198029429.4701787
4452.958509942656	196456938.3152208
4535.828825510186	194855182.8323004
4620.241371751313	193223618.4072945
4706.224849841282	191561690.29071897
4793.808495089107	190041002.05138245
4883.02208687788	188613705.8723407
4973.895958790063	187159847.46854407
5066.461008921268	185678932.51247007
5160.7487103859075	184170457.47707698
5256.791122018419	182633909.46459925
5354.620899273607	181068766.03215638
5454.271305329837	179474495.0141172
5555.7762223988775	177850554.34115773
5659.170163246243	176196391.85595125
5764.488282925873	174511445.12542945
5871.766390733255	172795141.24954876
5981.040962380944	171175107.97971034
6092.349152400711	169751055.12111336
6205.7288067765	168300500.3965068
6321.218475812449	166822950.60165474
6438.857427240419	165317903.35370648
6558.685659571435	163784846.92038113
6680.743915695614	162223260.04597294
6805.073696735207	160632611.7741187
6931.7172761554075	159012361.26726684
7060.717714137772	157361957.62278727
7192.118872221193	155920846.2091769
7325.9654282152305	154574939.01621926
7462.302891391108	153203984.26138654
7601.17761795533	151807515.80529013
7742.63682681127	150385058.83360842
7886.728615614156	148936129.69564405
8033.501977124734	147460235.73987833
8183.006815867389	145956875.1464636
8335.293965098195	144425536.75659958
8490.415204088747	142865699.89873388
8648.423275731726	141640196.1588418
8809.37190447399	140404776.62776184
8973.31581458352	139146365.7289945
9140.310748756232	137864535.58927488
9310.413487069076	136558850.3725441
9483.681866285928	135228866.13175976
9660.174799522645	133874130.65794973
9839.952296278227	132494183.32645573
10023.075482838643	131088554.94031638
10209.606623060476	129752516.5787803
10399.609139541202	128656802.60101898
10593.147635183701	127540697.19968924
10790.287915161836	126403820.88692877
10991.097009294961	125245787.11254153
11195.643194838794	124066202.1325664
11403.996019700331	122864664.87540068
11616.226326085018	121640766.80543035
11832.40627458378	120394091.78412431
12052.609368708414	119124215.92854255
12276.910479883603	118089652.68496118
12505.385872903913	117234506.65955977
12738.113231864785	116363446.22111742
12975.171686575868	115476175.19969955
13216.641839466038	114572391.9135986
13462.60579298911	113651789.0667591
13713.147177539457	112714053.64429393
13968.351179887397	111758866.80605541
14228.30457214352	110785903.77822652
14493.095741262152	109794833.74289425
14762.81471909391	108785319.72556785
15037.553212997384	107757018.4806043
15317.404637020798	106709580.37450035
15602.46414366368	105642649.26701395
15892.828656229764	104555862.39007255
16188.596901781992	103448850.22442785
16489.86944471065	102321236.37401588
16796.74872092653	101172637.43797754
17109.339072690134	100002662.88029854
17427.746784089173	98897229.40442127
17752.08011717636	98195949.81392492
18082.44934877952	97481619.29092263
18418.96680799711	96753994.95533964
18761.746914391195	96012829.40706185
19110.90621689136	95257870.64181682
19466.563433422634	94488861.96548977
19828.839491270715	93705541.90684493
20197.857568198782	92907644.12862214
20573.743134329117	92094897.33697954
20956.623994804308	91267025.18925075
21346.630333242454	90423746.19998524
21743.8947560008	89564773.64524063
22148.552337263594	88689815.4650929
22560.74066496859	87798574.16433328
22980.599887588487	86890746.7113165
23408.272761782944	85966024.43492667
23843.904700937204	85024092.91962633
24287.643824604504	84064631.89855097
24739.641008868115	83087315.14461538
25200.049937640895	82369347.1648249
25669.02715491952	81720612.65776792
26146.73211801092	81059805.09114861
26633.327251749808	80386699.78327416
27128.978003724646	79701067.87108727
27633.85290053167	79002676.23235025
28148.123605075813	78291287.4063807
28671.9649749377	77566659.51331289
29205.555121827452	76828546.17185533
29749.075472144435	76076696.41551878
30302.71082866393	75310854.60728522
30866.649433372746	74530760.3526877
31441.083031472648	73736148.41127452
32026.206936576502	73056699.94629322
32622.220097116733	72484507.34380509
33229.325163989684	71901666.13962278
33847.72855945983	71307978.16145661
34477.64054734464	70703241.54899727
35119.275304507275	70087250.68528053
35772.850993678774	69459796.12677541
36438.58983763541	68820664.53217152
37116.71819475767	68169638.58983983
37807.46663599349	67506496.94394548
38511.07002325569	66831014.11918352
39227.76758927724	66142960.444115214
39957.803018952654	65442101.97307762
40701.42453219439	64788304.50103653
41458.88496832911	64284247.119403414
42230.44187206672	63770809.14412974
43016.357581068	63247816.000771604
43816.89931514195	62715089.86602524
44632.33926710398	62172449.607264705
45462.95469532399	61619710.72095516
46309.02801799737	61056685.26991956
47170.84690917022	60483181.81943799
48048.70439655134	59899005.372157976
48942.898961145314	59303957.301792964
49853.73463873893	58697835.285587475
50781.5211232767	58080433.23552513
51726.57387216025	57455958.81516352
52689.21421350677	57011930.14570476
53669.76945540476	56559638.02715324
54668.57299720181	56098928.675315276
55685.96444286409	55629645.44404716
56722.28971644549	55151628.77199374
57777.90117970507	54664716.12833607
58853.15775191451	54168741.95752884
59948.42503189409	53663537.623009905
61064.07542232036	53148931.34986205
62200.48825634718	52624748.16640752
63358.04992658254	52090809.84471605
64537.15401646702	51546934.8400051
65738.20143409586	50992938.22891291
66961.60054853215	50563007.57376679
68207.76732865692	50164942.10034339
69477.1254846024	49759468.56072641
70770.10661181889	49346449.08954341
72087.15033782135	48925743.25572396
73428.70447166757	48497208.014751524
74795.2251562183	48060697.660026714
76187.17702322999	47616063.773325674
77605.0333513357	47163155.174336016
79049.2762269642	46701817.86925405
80520.3967082547	46231894.998425215
82018.89499202212	45753226.78301002
83545.28058382872	45265650.47065774
85100.07247122246	44838520.57374162
86683.79930019774	44488522.311895624
88296.99955494083	44132010.52284237
89940.22174092053	43768863.98873219
91614.0245713852	43398959.2358307
93318.97715733238	43022170.49253621
95055.6592010119	42638369.64661616
96824.66119303113	42247426.20164752
98626.5846131283	41849207.232646614
100462.04213468131	41443577.34087331
102331.6578330245	41030398.60779375
104236.06739764012	40609530.54818675
106175.9183482999	40180830.062377244
108151.87025522892	39755526.96460635
110164.59496336569	39398406.34238663
112214.77682079803	39034639.64462119
114303.11291144787	38675930.6997142
116430.31329208757	38325537.64108788
118597.10123376705	37968623.70801901
120804.21346773289	37619979.86154304
123052.40043592616	37275007.18189432
125342.42654613995	36932101.17511218
127675.07043192645	36594717.488788426
130051.12521734099	36260153.329853706
132471.39878661174	35934238.353368916
134936.71405883064	35620993.39084181
137447.90926775365	35301918.886261575
140005.8382468096	34976906.350858666
142611.37071941298	34645845.27686905
145265.39259467812	34311568.81847253
147968.80626863963	34015040.79744579
150722.53093107554	33712994.339491725
153527.5028780421	33405326.745560132
156384.6758302248	33091933.40535395
159295.0212572123	32772707.76176082
162259.5287078087	32488567.75610582
165279.2061464897	32213178.073079176
168355.08029612005	31932663.341192264
171488.19698705408	31646928.18241362
174679.62151272458	31355875.443710588
177930.43899185772	31059406.164015934
181241.75473742394	30757419.540580105
184614.69463245457	30449812.894697376
188050.40551285836	30182790.211026896
191550.05555735278	29927009.33038481
195114.83468466165	29666468.324031334
198745.9549580986	29401078.60521698
202444.65099768018	29130749.9385779
206212.18039991445	28855390.409454573
210049.82416539153	28574906.392640214
213958.88713434216	28289202.520546917
217940.6984302958	28034163.17088781
221996.61191199525	27787260.789775662
226128.00663372796	27535763.51333904
230336.28731421314	27279585.829794202
234622.88481422624	27018640.635968428
238989.25662310526	26770604.21783965
243436.8873543108	26536419.62643841
247967.289250216	26297876.81994323
252582.00269627848	26054894.69122972
257282.5967447932	25807390.623755988
262070.66964838552	25567027.619339623
266947.8494034318	25358320.34937636
271915.7943036019	25145729.00160625
276976.1935036891	24929181.292680465
282130.76759394706	24708603.594044693
287381.2691851069	24483920.906904664
292729.4835042813	24255056.83672591
298177.22900196735	24021933.567258492
303726.35797033116	23784471.83407899
309378.7571730137	23542590.897639487
315136.34848664823	23328115.369325858
321001.08955431683	23136196.847180456
326974.9744511768	22940706.688681792
333060.03436245886	22741578.42506968
339258.33827409917	22538744.350588873
345571.9936762143	22332135.49946853
352003.14727966755	22121681.622473154
358553.9857459817	21907311.163016863
365226.7364308176	21688951.2328337
372023.6681413066	21466527.587194577
378947.09190746717	21285293.622904483
385999.3617679763	21108813.548226178
393182.87557057705	20929049.149328932
400500.07578736113	20745939.30438024
407953.4503452449	20559421.754059825
415545.53347188793	20369433.080390844
423278.90655735444	20175908.68517722
431156.19903182285	19978782.768039294
439180.0892596086	19777988.3040413
447353.3054498463	19580741.764471352
455678.6265841069	19421423.341840416
464158.8833612772	19259139.976255376
472796.9591600391	19093836.489623275
481595.7910192351	18925456.676977597
490558.37063650455	18753943.287367746
499687.7453854889	18579238.004393212
508987.01935196744	18401281.42637541
518459.3543892913	18220013.046160284
528107.971193433	18035371.23054548
537936.1503980698	17859820.227676697
547947.2336900292	17696377.90229952
558144.6249454955	17534869.48150356
568531.7913873753	17373774.0787007
579112.2647641759	17221690.929442074
589889.6425508494	17071065.667575695
600867.5891719693	16917637.24395618
612049.837247669	16761353.491266377
623440.1888627864	16602161.271346366
635042.5168595962	16442150.677525282
646860.7661546321	16300866.062117258
658898.9550799957	16156952.115976054
671161.1767496273	16010359.906809375
683651.6004510239	15861039.59168653
696374.4730628222	15708940.400091523
709334.1204987989	15563980.151983198
722534.9491787221	15428990.708956802
735981.4475265756	15291489.089426454
749678.1874966876	15151428.541359898
763629.8261282241	15008761.442661695
777841.1071286482	14863439.284981063
792316.8624866261	14732456.958867382
807062.014114949	14603482.21347862
822081.5755240541	14472107.226132317
837380.653526649	14338287.327917276
852964.4499741016	14201977.018626198
868838.2635251193	14067433.294692421
885007.4914473438	13955659.903150484
901477.6314524917	13841806.38977304
918254.2835656282	13725834.043138785
935343.1520292377	13607703.43140028
952750.04724273	13487374.38887668
970480.8877380306	13364806.002397021
988541.7021919574	13239956.597389232
1006938.6314760271	13112783.723710379
1025677.9307444209	12983244.141213138
1044765.9715608052	12851293.805043671
1064209.2440647245	12716887.850665972
1084014.359178331	12611272.843325777
1104188.0508541602	12509238.163060453
1124737.1783647507	12405304.600033583
1145668.7286348727	12299436.815713853
1166989.8186171474	12191598.813913908
1188707.6977119034	12081753.928551186
1210829.7502320395	11969864.8111811
1233363.4979137748	11855893.418298157
1256316.6024741214	11739800.998400735
1279696.8682159416	11621548.078815214
1303512.244681509	11501094.452274768
1327770.8293554292	11400081.077994859
1352480.870417874	11314761.06114796
1377650.769549055	11227853.22426982
1403289.084785873	11139328.0177595
1429404.533431761	11049155.342092931
1456005.9950206485	10957304.537588788
1483102.5143361029	10863744.373983858
1510703.3044866556	10768443.039814409
1538817.7500383463	10671368.131599987
1567455.410205595	10572486.642825818
1596626.022101425	10471764.952720284
1626339.5040481905	10369168.814823491
1656605.9589499151	10264663.34534308
1687435.6777273756	10158213.01129342
1718839.1428171457	10049781.618413936
1750827.0317357269	9939332.298862703
1783410.2207100063	9841168.604946753
1816599.7883753285	9767963.780631416
1850407.019542302	9693396.602079341
1884843.4090337954	9617441.715646362
1919920.6655932867	9540073.295852678
1955650.715865947	9461265.036601953
1992045.7084538713	9380990.142236857
2029118.018046678	9299221.318428384
2066880.2496290822	9215930.76289538
2105345.242766708	9131090.155951513
2144526.0759716653	9044670.650876302
2184436.0711494284	8956642.864106826
2225088.7981283693	8866976.865247129
2266498.079273693	8775642.166891444
2308677.994187172	8682607.714258207
2351642.884494346	8587841.874631118
2395407.3587208795	8495078.866352027
2439986.29725955	8422648.981514825
2485394.8574297987	8348871.164196423
2531648.478631358	8273720.329143982
2578762.8875937983	8197170.924263869
2626754.1037238385	8119196.921933581
2675638.4445520453	8040695.824791828
2725432.531281028	7972300.796839677
2776153.294436804	7902632.925779507
2827817.979625338	7831668.523784518
2880444.1533962977	7759383.462193369
2934049.7092157872	7685753.163306282
2988652.8735503824	7610778.632539334
3044272.212064306	7546193.689473765
3100926.6359319235	7480406.8096282445
3158635.408267819	7413395.624754755
3217418.1506763715	7345137.350328423
3277294.849923382	7275608.777800464
3338285.8647317644	7204786.26670705
3400411.9327037027	7143023.34181456
3463694.1773717343	7080901.257357251
3528154.115380883	7017623.070337753
3593813.6638046256	6953167.26549066
3660695.147596906	6887511.927147816
3728821.30718283	6820634.731786778
3798215.306190736	6762726.967120101
3868900.7393279755	6705455.206443994
3940901.6404034477	6647117.6085565705
4014242.490499326	6587694.338045967
4088948.226294856	6527165.190359947
4165044.248545185	6465509.584936082
4242556.430717777	6402706.558204217
4321511.127789762	6339606.2491326025
4401935.185208879	6287071.069171972
4483855.948021182	6233558.200573111
4567301.270168747	6179049.44838408
4652299.523960189	6123526.279041827
4738879.609717651	6066969.814070514
4827070.965603188	6009360.823662659
4916903.577628021	5950679.720140814
5008407.989848212	5894193.952187136
5101615.314749834	5845106.793319973
5196557.243827658	5795106.114073818
5293266.058360566	5744174.913678972
5391774.640387494	5692295.874978542
5492116.483887789	5639451.358540357
5594325.706169377	5585623.3966594525
5698437.059469136	5530793.687248794
5804485.942768984	5480316.9926765
5912508.413831869	5434451.553465725
6022541.201461928	5387732.5506269485
6134621.717992506	5340144.0991958305
6248788.072006888	5291670.01858612
6365079.081295578	5242293.827088103
6483534.286054714	5191998.736264664
6604193.962330305	5140767.64524298
6727099.135712337	5094082.153960809
6852291.595284058	5048834.124832085
6979813.907830667	5002744.022182048
7109709.432312424	4955796.174879199
7242022.334607315	4911948.947348579
7376797.602527731	4868210.989203624
7514081.061116962	4823659.060215318
7653919.388230155	4778278.012247755
7796360.130405221	4736391.609354393
7941451.71902934	4694113.330405163
8089243.486805938	4651048.245490791
8239785.684528511	4607293.813425377
8393129.498166373	4567173.149004206
8549327.066268368	4526305.832191396
8708431.497690724	4484677.967658871
8870496.889654404	4443112.523369759
9035578.34613892	4406381.711688072
9203731.99661823	4368967.333351018
9375015.015145289	4330856.667066836
9549485.639791965	4292036.754798346
9727203.192450536	4252494.397357101
9908228.099003788	4212216.149915505
10092621.909870485	4171188.3174354327
10280447.320933098	4132192.9248271673
10471768.194855202	4097872.8560423558
10666649.582795387	4062914.0849376945
10865157.746525373	4027304.7251543314
11067360.180959744	3991032.669126251
11273325.63710487	3954085.583963585
11483124.145435112	3916450.907259274
11696827.039703846	3878115.842817731
11914506.981197748	3842023.089428832
12136237.983442418	3807646.4562259144
12362095.43736769	3772630.0680297054
12592156.13694151	3738973.646548385
12826498.3052806	3705349.696404295
13065201.621247198	3671099.9988267072
13308347.24654076	3638696.0457283626
13556017.853293689	3605808.290846953
13808297.652180923	3572696.4105035514
14065272.421052365	3541116.4440651964
14327029.534098294	3508948.7690779045
14593657.991557576	3476705.064847379
14865248.449978571	3445715.5559750134
15141893.25304352	3415366.3102586707
15423686.462966274	3384452.2599154403
15710723.89247449	3352962.893835113
16003103.137387017	3323677.5303842546
16300923.60979741	3293871.6059055226
16604286.571875297	3263510.988100585
16913295.17029647	3234412.998866908
17228054.471313924	3205675.486978991
17548671.49648152	3176403.1651049787
17875255.259042356	3147511.8279567542
18207916.800994623	3119804.4294339204
18546769.230846975	3091581.391509997
18891927.762076642	3062914.509405725
19243509.75230332	3036200.294772995
19601634.743191857	3008988.92406037
19966424.501097932	2981271.1451086057
20338003.0584698	2954806.270499767
20716496.75602067	2928570.3076117225
21102034.285685964	2901846.088990123
21494746.734379806	2875566.856297173
