# Frequency (Hz)	Imaginary Part (Ohm/m)
1000.0	37085737.90200807
1018.6101701559753	37077364.602019586
1037.566678745186	37068835.473493546
1056.875971184804	37060147.61643436
1076.5446128423157	37051298.076877005
1096.5792912678098	37042283.84588269
1116.9868184678226	37033101.85851575
1137.7741332214914	37023748.992801525
1158.9483034398106	37014222.06866492
1180.5165285688054	37004517.84684908
1202.4861420374123	36994633.02781401
1224.8646137509306	36984564.25061473
1247.6595526308697	36974308.09175851
1270.8787092020582	36963993.97845684
1294.529978227916	36953615.51947899
1318.6214013947485	36943043.91561361
1343.1611700460153	36932275.572401464
1368.1576279674719	36921306.82848985
1393.619274224142	36910133.95438764
1419.5547660501015	36898753.15119726
1445.9729217920194	36887160.549323
1472.882723907502	36875352.207155295
1500.2933220192183	36863324.1097306
1528.2140360258693	36851072.16736618
1556.654359271062	36838592.21426961
1585.6239617711371	36825889.23417056
1615.132693503091	36813313.04100739
1645.1905877536624	36800502.802749544
1675.807864530767	36787454.16377798
1706.9949340384078	36774162.68741484
1738.7624002162504	36760623.85441497
1771.1210643450886	36746833.061429255
1804.0819287193826	36732785.61943949
1837.6562003881704	36718476.752164036
1871.8552949655793	36703901.59443385
1906.690840512252	36689055.19053826
1942.1746814890264	36673932.49253996
1978.3188827841643	36658528.3585587
2015.1357338155585	36643120.118432686
2052.6377527092523	36627670.51934471
2090.8376905557498	36611933.40058887
2129.748535745521	36595903.41137522
2169.3835183851843	36579575.101334706
2209.756114795903	36562942.91866597
2250.880052095462	36546001.208247714
2292.7693128656488	36528744.209715836
2335.438139906479	36511166.055504896
2378.9010410788933	36493260.76885306
2423.1727942376006	36475022.26176994
2468.2684522556924	36456444.332966626
2514.2033481427966	36437557.44786548
2560.9931002584594	36419024.41635355
2608.6536176225477	36400146.481971696
2657.2011053245064	36380917.226018794
2706.652070033241	36361330.11034063
2757.0233256095826	36341378.47510685
2808.3319988231724	36321055.53654646
2860.5955351757416	36300354.3846414
2913.831704832789	36279267.98077696
2968.0586086656026	36257789.15534863
3023.2946844057765	36235910.60532432
3079.5587129142264	36213624.891761295
3136.8698245668766	36190924.43727682
3195.2475057592133	36168380.32820647
3254.711605531848	36145871.01974739
3315.282342319423	36122942.80922779
3376.9803108250912	36099587.90080904
3439.8264890229243	36075798.353570655
3503.8422452906757	36051566.07881022
3569.0493456752292	36026882.83729324
3635.4699612933177	36001740.23645161
3703.126675869927	35976129.72753016
3772.0424934169973	35950042.6026799
3842.240846055061	35923469.9919973
3913.745601980384	35896402.86050841
3986.581073580439	35868937.84767056
4060.7720257003657	35842279.20582012
4136.343684063274	35815124.44210872
4213.321743847289	35787464.323624104
4291.732378422157	35759289.44562796
4371.602248248501	35730590.22835818
4452.958509942655	35701356.91377167
4535.828825510186	35671579.56222647
4620.241371751313	35641248.049102224
4706.224849841281	35610352.061357655
4793.808495089106	35578881.09402402
4883.02208687788	35546824.446633324
4973.895958790063	35514171.21958007
5066.461008921268	35482044.888133116
5160.7487103859075	35450124.675161436
5256.791122018419	35417610.42159494
5354.620899273607	35384491.07223707
5454.271305329836	35350755.3661522
5555.7762223988775	35316391.832836755
5659.170163246242	35281388.78831915
5764.488282925873	35245734.3311871
5871.766390733255	35209416.338541
5981.040962380945	35172422.46187203
6092.349152400711	35134740.122863516
6205.7288067765	35096356.50911419
6321.218475812449	35057517.183531545
6438.8574272404185	35020304.158754155
6558.685659571435	34982398.59325364
6680.743915695614	34943787.598729305
6805.073696735206	34904458.047026984
6931.717276155407	34864396.56567531
7060.717714137772	34823589.533338994
7192.118872221193	34782023.07518733
7325.96542821523	34739683.0581767
7462.302891391108	34696555.08624508
7601.17761795533	34652624.49541733
7742.636826811269	34607876.348819226
7886.728615614156	34562295.43159877
8033.501977124735	34517978.61532158
8183.00681586739	34474185.8263994
8335.293965098195	34429578.04622377
8490.415204088747	34384140.107668795
8648.423275731726	34337856.56134577
8809.37190447399	34290711.67035026
8973.31581458352	34242689.40491134
9140.310748756232	34193773.43694132
9310.413487069076	34143947.13448403
9483.681866285926	34093193.55605977
9660.174799522645	34041495.44490501
9839.952296278227	33988835.223104924
10023.075482838643	33935756.46157239
10209.606623060476	33885656.672575526
10399.609139541202	33834624.517980665
10593.1476351837	33782642.64630537
10790.287915161836	33729693.38315316
10991.097009294961	33675758.725204065
11195.643194838794	33620820.33409323
11403.99601970033	33564859.53017572
11616.22632608502	33507857.28617525
11832.40627458378	33449794.22071466
12052.609368708414	33390650.591726065
12276.910479883603	33330406.289738342
12505.385872903913	33269040.83103971
12738.113231864783	33210240.215268534
12975.171686575868	33152472.649053827
13216.641839466038	33093630.018602375
13462.60579298911	33033692.316785783
13713.147177539455	32972639.16413963
13968.351179887397	32910449.801934175
14228.30457214352	32847103.085116185
14493.09574126215	32782577.47511939
14762.81471909391	32716851.032541133
15037.553212997384	32649901.409682754
15317.404637020798	32581705.842951097
15602.46414366368	32512241.145118687
15892.828656229764	32442584.39005752
16188.596901781993	32377926.398043815
16489.86944471065	32312065.109796796
16796.74872092653	32244978.131768808
17109.339072690134	32176642.65366447
17427.746784089173	32107035.44068492
17752.08011717636	32036132.82562773
18082.44934877952	31963910.700839832
18418.96680799711	31890344.510020602
18761.746914391195	31815409.2398725
19110.90621689136	31739079.411596257
19466.56343342263	31661329.07222781
19828.83949127071	31582131.785814036
20197.857568198782	31507547.764812957
20573.743134329114	31434705.424254686
20956.623994804308	31360507.47534406
21346.630333242454	31284928.689978983
21743.8947560008	31207943.370558083
22148.55233726359	31129525.34124325
22560.74066496859	31049647.93905957
22980.599887588487	30968284.004829638
23408.272761782944	30885405.873939116
23843.904700937208	30800985.36693052
24287.643824604504	30714993.77992184
24739.64100886812	30627401.874846946
25200.049937640895	30540139.603829566
25669.027154919517	30460577.769387167
26146.732118010917	30379535.275667876
26633.327251749808	30296984.567350607
27128.978003724646	30212897.57630506
27633.852900531667	30127245.71204825
28148.123605075813	30039999.85202343
28671.964974937695	29951130.33169816
29205.55512182745	29860606.93447795
29749.075472144435	29768398.88143237
30302.71082866393	29674474.820829883
30866.649433372742	29578802.81747782
31441.08303147265	29481350.341864217
32026.206936576502	29391382.598749325
32622.220097116733	29304006.18274863
33229.325163989684	29215003.67677856
33847.72855945983	29124344.819028057
34477.640547344636	29031998.784508683
35119.275304507275	28937934.174573675
35772.850993678774	28842119.006242104
36438.58983763541	28744520.70132438
37116.71819475767	28645106.075345192
37807.466635993485	28543841.326260544
38511.070023255685	28440692.022964627
39227.76758927723	28335623.093582887
39957.803018952654	28231775.42703185
40701.42453219439	28138819.3951585
41458.88496832911	28044133.435714975
42230.441872066716	27947685.354454823
43016.35758106799	27849442.357991192
43816.89931514194	27749371.042646747
44632.33926710397	27647437.383096017
45462.95469532399	27543606.720796425
46309.02801799736	27437843.752204027
47170.84690917023	27330112.51676991
48048.704396551344	27220376.384713266
48942.89896114532	27108598.044566788
49853.73463873894	26994739.490490433
50781.5211232767	26891921.57697243
51726.57387216024	26792549.356591232
52689.21421350677	26691327.802279968
53669.76945540476	26588222.49761953
54668.57299720181	26483198.385695368
55685.96444286408	26376219.757177822
56722.28971644549	26267250.238180496
57777.90117970507	26156252.777892828
58853.1577519145	26043189.635982327
59948.42503189408	25928022.369762506
61064.07542232036	25810711.821121927
62200.48825634718	25691218.10321005
63358.04992658254	25574197.389058765
64537.15401646702	25471326.73960948
65738.20143409586	25366541.649869893
66961.60054853215	25259806.491780438
68207.76732865692	25151084.9742373
69477.1254846024	25040340.130753085
70770.10661181889	24927534.306887727
72087.15033782135	24812629.147445656
73428.70447166759	24695585.58343456
74795.22515621828	24576363.818781555
76187.17702322999	24454923.316802066
77605.0333513357	24331222.786416914
79049.2762269642	24205220.168112908
80520.39670825469	24094099.917689435
82018.8949920221	23987100.203049302
83545.28058382872	23878109.205513086
85100.07247122246	23767089.86696725
86683.79930019773	23654004.439640474
88296.99955494082	23538814.473268986
89940.22174092053	23421480.80202305
91614.0245713852	23301963.531190217
93318.9771573324	23180222.0236106
95055.65920101192	23056214.885859884
96824.66119303115	22929899.954175077
98626.5846131283	22801234.280118357
100462.04213468132	22676526.869996127
102331.65783302448	22568733.55332774
104236.06739764012	22458934.184694473
106175.9183482999	22347091.43112792
108151.87025522892	22233167.26488677
110164.59496336569	22117122.950527012
112214.77682079801	21998919.031731382
114303.11291144785	21878515.317893863
116430.31329208757	21755870.870454416
118597.10123376705	21630943.988979418
120804.21346773289	21503692.196983133
123052.40043592616	21374072.227485143
125342.42654613995	21242040.008299183
127675.07043192645	21128430.47375836
130051.12521734099	21019270.3845569
132471.39878661174	20908078.807521176
134936.71405883064	20794817.936316904
137447.90926775365	20679449.261027507
140005.8382468096	20561933.55506031
142611.37071941295	20442230.86180904
145265.39259467812	20320300.481068254
147968.80626863963	20196100.9551947
150722.53093107554	20069590.05501135
153527.5028780421	19940724.765448995
156384.67583022476	19809461.27092068
159295.0212572123	19683650.29748795
162259.5287078087	19576505.910547834
165279.2061464897	19467367.54833549
168355.08029612005	19356198.10263185
171488.19698705408	19242959.7746275
174679.62151272455	19127614.062070817
177930.43899185772	19010121.746176697
181241.75473742394	18890442.878291752
184614.69463245454	18768536.766311422
188050.40551285836	18644361.96084406
191550.0555573528	18517876.241117872
195114.83468466165	18389036.600625284
198745.9549580986	18257799.232500277
202444.65099768018	18147627.82400255
206212.18039991445	18041808.316402428
210049.8241653915	17934019.489760056
213958.88713434213	17824224.69471296
217940.6984302958	17712386.59984778
221996.61191199525	17598467.179007266
226128.00663372793	17482427.698360816
230336.2873142131	17364228.70323474
234622.88481422624	17243830.0046971
238989.25662310526	17121190.6658931
243436.8873543108	16996268.98812617
247967.289250216	16869022.4966798
252582.00269627848	16748480.089503128
257282.59674479323	16647058.931582334
262070.66964838552	16543750.308655204
266947.8494034318	16438519.094676843
271915.7943036019	16331329.509900602
276976.1935036891	16222145.10871274
282130.76759394706	16110928.767240394
287381.2691851069	15997642.670729108
292729.4835042813	15882248.300685467
298177.22900196735	15764706.421780245
303726.3579703311	15644977.068508163
309378.75717301364	15523019.531599015
315136.34848664823	15398792.344176175
321001.08955431683	15296977.557306204
326974.97445117676	15199026.38054246
333060.03436245886	15099252.315712176
339258.33827409917	14997621.43855825
345571.9936762143	14894099.193487374
352003.1472796675	14788650.381820826
358553.9857459817	14681239.149826394
365226.7364308175	14571828.976527894
372023.6681413066	14460382.661287513
378947.09190746717	14346862.311157243
385999.36176797637	14231229.327994904
393182.87557057705	14113444.395340249
400500.07578736113	14003181.477954216
407953.45034524484	13911228.780187385
415545.53347188793	13817564.8270688
423278.90655735444	13722157.77184522
431156.19903182285	13624975.175089823
439180.0892596086	13525983.993672622
447353.3054498463	13425150.569525305
455678.6265841068	13322440.618197188
464158.8833612772	13217819.217198163
472796.9591600391	13111250.794124566
481595.79101923504	13002699.11456433
490558.37063650455	12892127.269776758
499687.7453854889	12779497.664143216
508987.0193519675	12689246.749587
518459.3543892913	12602109.021874916
528107.971193433	12513349.646223117
537936.1503980698	12422938.443487499
547947.2336900292	12330844.67288495
558144.6249454955	12237037.021541208
568531.7913873753	12141483.593844004
579112.2647641759	12044151.900598379
589889.6425508494	11945008.847979885
600867.5891719692	11844020.726282367
612049.837247669	11741153.198456345
623440.1888627863	11636371.288433937
635042.5168595961	11539423.307236226
646860.7661546321	11459009.648384407
658898.9550799957	11377099.47765848
671161.1767496272	11293664.94471786
683651.6004510238	11208677.680922309
696374.4730628222	11122108.789686443
709334.1204987989	11033928.836654464
722534.9491787221	10944107.839692203
735981.4475265755	10852615.258692916
749678.1874966878	10759419.9851932
763629.8261282243	10664490.331795935
777841.1071286482	10567794.021396099
792316.8624866261	10469298.176206255
807062.0141149492	10391982.084594326
822081.575524054	10316929.773896415
837380.6535266489	10240480.726925824
852964.4499741016	10162608.950182846
868838.2635251193	10083287.966424327
885007.4914473438	10002490.80566113
901477.6314524917	9920189.995988011
918254.2835656281	9836357.554242902
935343.1520292377	9750964.976492323
952750.0472427299	9663983.22833974
970480.8877380306	9575382.735053582
988541.7021919573	9485133.371511467
1006938.6314760271	9402571.06037967
1025677.9307444209	9334227.912621234
1044765.9715608053	9264612.88725401
1064209.2440647245	9193702.3144193
1084014.359178331	9121472.083758276
1104188.0508541602	9047897.636214247
1124737.1783647507	8972953.95568229
1145668.7286348727	8896615.56050351
1166989.8186171474	8818856.49480103
1188707.6977119034	8739650.319654653
1210829.7502320393	8658970.104111401
1233363.4979137746	8576788.416028667
1256316.6024741214	8493077.312747
1279696.8682159416	8428567.131147053
1303512.2446815087	8365512.142506684
1327770.829355429	8301283.689798533
1352480.8704178738	8235859.934656628
1377650.769549055	8169218.6322992835
1403289.084785873	8101337.12396566
1429404.533431761	8032192.329211502
1456005.9950206485	7961760.738061571
1483102.514336103	7890018.403015982
1510703.3044866556	7816940.930907801
1538817.7500383465	7742503.4746091245
1567455.410205595	7666680.724582753
1596626.022101425	7598061.143355898
1626339.5040481905	7541205.61718573
1656605.9589499151	7483291.999999221
1687435.6777273756	7424300.6005425295
1718839.1428171454	7364211.36110421
1750827.0317357269	7303003.850695393
1783410.220710006	7240657.25810306
1816599.7883753285	7177150.384813922
1850407.019542302	7112461.637806808
1884843.4090337954	7046569.0222107135
1919920.6655932867	6979450.133826345
1955650.715865947	6911082.15150848
1992045.7084538713	6841441.829406444
2029118.0180466783	6788646.745568299
2066880.2496290822	6736624.797542285
2105345.242766708	6683634.712211655
2144526.0759716653	6629658.472376456
2184436.0711494284	6574677.72553353
2225088.7981283693	6518673.7776365625
2266498.079273693	6461627.586739824
2308677.994187172	6403519.756523742
2351642.884494346	6344330.529699957
2395407.358720879	6284039.781293568
2439986.29725955	6222627.011800511
2485394.857429798	6160071.340217438
2531648.478631358	6104037.09568373
2578762.8875937983	6057454.538001055
2626754.1037238385	6010005.070993595
2675638.4445520453	5961672.561331321
2725432.531281028	5912440.575440166
2776153.2944368036	5862292.373914455
2827817.979625338	5811210.905825347
2880444.1533962977	5759178.8029232705
2934049.709215787	5706178.373732619
2988652.873550383	5652191.597536389
3044272.2120643063	5597200.11824897
3100926.6359319235	5541185.238174896
3158635.408267819	5484127.911651364
3217418.1506763715	5441500.989945483
3277294.849923382	5399123.143905186
3338285.8647317644	5355956.638939229
3400411.9327037027	5311986.797970829
3463694.1773717343	5267198.670780264
3528154.1153808828	5221577.028921721
3593813.6638046256	5175106.360545395
3660695.147596906	5127770.8651233185
3728821.30718283	5079554.4480770305
3798215.306190736	5030440.715305189
3868900.7393279755	4980412.967609473
3940901.6404034477	4929454.19501662
4014242.490499326	4884254.141628799
4088948.226294856	4846486.379180893
4165044.248545185	4808015.752247414
4242556.430717777	4768829.180400698
4321511.127789762	4728913.339784087
4401935.1852088785	4688254.658581677
4483855.948021181	4646839.312403782
4567301.270168747	4604653.2195864385
4652299.523960189	4561682.036403553
4738879.609717651	4517911.15218983
4827070.965603188	4473325.684373008
4916903.577628021	4427910.47341364
5008407.989848212	4381650.077650639
5101615.314749833	4347546.748322334
5196557.243827657	4313320.63586104
5293266.058360566	4278457.569623061
5391774.640387494	4242945.6957902415
5492116.483887789	4206772.939942829
5594325.706169377	4169927.002954088
5698437.0594691355	4132395.3568084314
5804485.942768984	4094165.240341766
5912508.413831869	4055223.654902581
6022541.201461928	4015557.3599322205
6134621.717992506	3975152.86846301
6248788.072006888	3933996.4425324914
6365079.081295578	3897835.5143792666
6483534.286054714	3867428.5010659355
6604193.962330305	3836455.6080609015
6727099.135712336	3804906.3042468242
6852291.595284057	3772769.8625204638
6979813.907830667	3740035.3561453656
7109709.432312423	3706691.6550366613
7242022.334607315	3672727.4219766874
7376797.60252773	3638131.108760253
7514081.061116962	3602890.9522680924
7653919.388230155	3566994.9704672843
7796360.130405221	3530430.958337256
7941451.71902934	3493186.483719895
8089243.486805938	3466067.5117210983
8239785.684528512	3438582.062414506
8393129.498166373	3410585.1042195023
8549327.066268368	3382067.117868645
8708431.497690724	3353018.4069392867
8870496.889654402	3323429.0945567247
9035578.34613892	3293289.1200359245
9203731.99661823	3262588.2354607917
9375015.01514529	3231316.0021997807
9549485.639791967	3199461.7873566244
9727203.192450536	3167014.760155053
9908228.099003786	3133963.888256204
10092621.909870483	3105191.844716716
10280447.320933098	3080823.587596092
10471768.194855202	3056001.833064049
10666649.582795387	3030718.141456595
10865157.746525371	3004963.916046155
11067360.180959744	2978730.4001185885
11273325.63710487	2952008.673995823
11483124.14543511	2924789.652003052
11696827.039703846	2897064.079379516
11914506.981197748	2868822.5291317846
12136237.983442418	2840055.398828471
12362095.437367693	2810752.9073353168
12592156.13694151	2781014.2503857976
12826498.3052806	2759425.643492771
13065201.621247198	2737435.268952034
13308347.24654076	2715035.649799298
13556017.853293689	2692219.169922703
13808297.652180923	2668978.071473244
14065272.421052363	2645304.4522270295
14327029.534098294	2621190.2628984344
14593657.991557576	2596627.3044032585
14865248.449978571	2571607.225070955
15141893.25304352	2546121.517804963
15423686.462966273	2520161.5171902045
15710723.892474487	2493718.3965467564
16003103.137387017	2470906.9438077537
16300923.609797413	2451436.5577331004
16604286.571875297	2431603.824460596
16913295.17029647	2411402.0006472315
17228054.471313924	2390824.21745524
17548671.49648152	2369863.47821661
17875255.259042352	2348512.6560541564
18207916.800994623	2326764.49145829
18546769.230846975	2304611.5898187133
18891927.762076646	2282046.4189101765
19243509.75230332	2259061.3063314306
19601634.743191857	2235648.4368965416
19966424.501097932	2212062.1306668674
20338003.0584698	2194831.1657738206
20716496.75602067	2177279.5296921623
21102034.285685964	2159401.254676508
21494746.734379806	2141190.2619207175
21894767.628566206	2122640.359491033
