# Frequency (Hz)	Imaginary Part (Ohm/m)
1000.0	25349018.17547926
1018.6101701559753	25305546.969917268
1037.566678745186	25261266.757822894
1056.875971184804	25216162.48344689
1076.5446128423157	25170218.810849994
1096.5792912678098	25123420.118688483
1116.9868184678226	25075750.49490276
1137.7741332214914	25027193.731307115
1158.9483034398106	24977733.31807874
1180.5165285688054	24927352.438144185
1202.4861420374123	24876033.961461462
1224.8646137509306	24823760.439195514
1247.6595526308697	24770514.097785544
1270.8787092020582	24720970.97727686
1294.529978227916	24675012.366778605
1318.6214013947485	24628198.458718836
1343.1611700460153	24580513.335864417
1368.1576279674719	24531940.784759767
1393.619274224142	24482464.29021415
1419.5547660501015	24432067.029686317
1445.9729217920194	24380731.867564667
1472.882723907502	24328441.349340945
1500.2933220192183	24275177.695675537
1528.2140360258693	24220922.796352293
1556.654359271062	24165658.20412084
1585.6239617711371	24109609.766949195
1615.132693503091	24062147.62727988
1645.1905877536624	24013802.209115352
1675.807864530767	23964557.074492518
1706.9949340384078	23914395.479535006
1738.7624002162504	23863300.36876003
1771.1210643450886	23811254.369279396
1804.0819287193826	23758239.784892496
1837.6562003881704	23704238.590069402
1871.8552949655793	23649232.423822027
1906.690840512252	23593202.583461158
1942.1746814890264	23536130.018237356
1978.3188827841643	23477995.322863504
2015.1357338155585	23424411.479884602
2052.6377527092523	23374722.10044986
2090.8376905557498	23324107.993208885
2129.748535745521	23272551.948819865
2169.3835183851843	23220036.437672198
2209.756114795903	23166543.603926238
2250.880052095462	23112055.25944215
2292.7693128656488	23056552.877595693
2335.438139906479	23000017.586979005
2378.9010410788933	22942430.164984126
2423.1727942376006	22883771.031267084
2468.2684522556924	22824020.241090354
2514.2033481427966	22763709.955680747
2560.9931002584594	22712871.704878934
2608.6536176225477	22661087.345579267
2657.2011053245064	22608339.270541605
2706.652070033241	22554609.544852097
2757.0233256095826	22499879.899825085
2808.3319988231724	22444131.726791535
2860.5955351757416	22387346.070771948
2913.831704832789	22329503.624031406
2968.0586086656026	22270584.7195148
3023.2946844057765	22210569.32415973
3079.5587129142264	22149437.03208512
3136.8698245668766	22087167.057652988
3195.2475057592133	22030312.851445194
3254.711605531848	21977561.528387025
3315.282342319423	21923828.4942308
3376.9803108250912	21869095.479165927
3439.8264890229243	21813343.873377543
3503.8422452906757	21756554.72071897
3569.0493456752292	21698708.712266408
3635.4699612933177	21639786.179753702
3703.126675869927	21579767.088884912
3772.0424934169973	21518631.032522447
3842.240846055061	21456357.22374841
3913.745601980384	21392924.48879683
3986.581073580439	21329224.715526734
4060.7720257003657	21275709.926228553
4136.343684063274	21221199.217595674
4213.321743847289	21165674.055399813
4291.732378422157	21109115.560487557
4371.602248248501	21051504.502361212
4452.958509942655	20992821.29264027
4535.828825510186	20933045.978401124
4620.241371751313	20872158.235392857
4706.224849841281	20810137.3611268
4793.808495089106	20746962.267837424
4883.02208687788	20682611.475312307
4973.895958790063	20617063.10358864
5066.461008921268	20557777.609049838
5160.7487103859075	20502691.292393442
5256.791122018419	20446579.810010806
5354.620899273607	20389424.08339332
5454.271305329836	20331204.67897809
5555.7762223988775	20271901.80154032
5659.170163246242	20211495.287462685
5764.488282925873	20149964.597879544
5871.766390733255	20087288.811693445
5981.040962380945	20023446.61846176
6092.349152400711	19958416.31115091
6205.7288067765	19892175.778755702
6321.218475812449	19826014.91499528
6438.8574272404185	19770544.064514283
6558.685659571435	19714040.892067146
6680.743915695614	19656486.185966402
6805.073696735206	19597860.37699186
6931.717276155407	19538143.53173676
7060.717714137772	19477315.345830288
7192.118872221193	19415355.137033816
7325.96542821523	19352241.838208742
7462.302891391108	19287953.990153436
7601.17761795533	19222469.734306853
7742.636826811269	19155766.805316426
7886.728615614156	19087822.52346758
8033.501977124735	19026929.502458822
8183.00681586739	18970212.92636578
8335.293965098195	18912440.84514099
8490.415204088747	18853593.61565433
8648.423275731726	18793651.229213722
8809.37190447399	18732593.304761894
8973.31581458352	18670399.081946656
9140.310748756232	18607047.4140621
9310.413487069076	18542516.76085855
9483.681866285926	18476785.18121861
9660.174799522645	18409830.325696945
9839.952296278227	18341629.42892126
10023.075482838643	18273890.188997503
10209.606623060476	18217118.872891717
10399.609139541202	18159291.03293324
10593.1476351837	18100387.007033378
10790.287915161836	18040386.767188646
10991.097009294961	17979269.91267101
11195.643194838794	17917015.663091388
11403.99601970033	17853602.851334173
11616.22632608502	17789009.91636008
11832.40627458378	17723214.89587525
12052.609368708414	17656195.41886378
12276.910479883603	17587928.697981354
12505.385872903913	17518391.521807324
12738.113231864783	17456607.129887745
12975.171686575868	17398864.851485383
13216.641839466038	17340047.979456756
13462.60579298911	17280136.51543163
13713.147177539455	17219110.088866707
13968.351179887397	17156947.950119406
14228.30457214352	17093628.963392753
14493.09574126215	17029131.599549018
14762.81471909391	16963433.92878953
15037.553212997384	16896513.61319836
15317.404637020798	16828347.899147153
15602.46414366368	16758913.609558644
15892.828656229764	16690340.675107686
16188.596901781993	16632808.118921556
16489.86944471065	16574204.872075303
16796.74872092653	16514511.008833548
17109.339072690134	16453706.232639596
17427.746784089173	16391769.869214378
17752.08011717636	16328680.85952697
18082.44934877952	16264417.752634311
18418.96680799711	16198958.69838763
18761.746914391195	16132281.440003168
19110.90621689136	16064363.306494636
19466.56343342263	15995181.204964831
19828.83949127071	15924711.61275381
20197.857568198782	15862614.419286055
20573.743134329114	15804340.535546802
20956.623994804308	15744982.164915506
21346.630333242454	15684519.124906579
21743.8947560008	15622930.857434943
22148.55233726359	15560196.421826048
22560.74066496859	15496294.487695834
22980.599887588487	15431203.32769816
23408.272761782944	15364900.810137272
23843.904700937208	15297364.391442813
24287.643824604504	15228571.10850473
24739.64100886812	15158497.57086557
25200.049937640895	15089695.134193774
25669.027154919517	15031864.967842994
26146.732118010917	14972958.572256278
26633.327251749808	14912955.918624425
27128.978003724646	14851836.60539867
27633.852900531667	14789579.851353968
28148.123605075813	14726164.48852313
28671.964974937695	14661568.954999506
29205.55512182745	14595771.287605703
29749.075472144435	14528749.11442582
30302.71082866393	14460479.64719885
30866.649433372742	14390939.67357032
31441.08303147265	14320105.549199924
32026.206936576502	14258219.173397595
32622.220097116733	14199890.63342693
33229.325163989684	14140476.589402478
33847.72855945983	14079956.839909067
34477.640547344636	14018310.80757979
35119.275304507275	13955517.53209942
35772.850993678774	13891555.663077705
36438.58983763541	13826403.452790016
37116.71819475767	13760038.748782825
37807.466635993485	13692438.986341713
38511.070023255685	13623581.180819066
39227.76758927723	13553441.919819072
39957.803018952654	13484997.743384195
40701.42453219439	13427392.630003024
41458.88496832911	13368715.475659981
42230.441872066716	13308946.329490349
43016.35758106799	13248064.869340412
43816.89931514194	13186050.394857747
44632.33926710397	13122881.820452835
45462.95469532399	13058537.668129731
46309.02801799736	12992996.060183344
47170.84690917023	12926234.711760778
48048.704396551344	12858230.923284236
48942.89896114532	12788961.572732896
49853.73463873894	12718403.107781196
50781.5211232767	12657363.779433511
51726.57387216024	12599599.861782398
52689.21421350677	12540760.947794933
53669.76945540476	12480827.031606365
54668.57299720181	12419777.735039415
55685.96444286408	12357592.300675446
56722.28971644549	12294249.58479674
57777.90117970507	12229728.050197393
58853.1577519145	12164005.758860428
59948.42503189408	12097060.36449864
61064.07542232036	12028869.104956625
62200.48825634718	11959408.794471372
63358.04992658254	11892087.95979683
64537.15401646702	11835445.688477213
65738.20143409586	11777749.294850314
66961.60054853215	11718979.16152063
68207.76732865692	11659115.306009587
69477.1254846024	11598137.373961298
70770.10661181889	11536024.632221827
72087.15033782135	11472755.961789735
73428.70447166759	11408309.850635353
74795.22515621828	11342664.386386495
76187.17702322999	11275797.248878006
77605.0333513357	11207685.702562638
79049.2762269642	11138306.588780757
80520.39670825469	11079013.084476441
82018.8949920221	11022702.954387542
83545.28058382872	10965344.883196192
85100.07247122246	10906919.368540151
86683.79930019773	10847406.545114908
88296.99955494082	10786786.177919263
89940.22174092053	10725037.655375183
91614.0245713852	10662139.98231968
93318.9771573324	10598071.772866203
95055.65920101192	10532811.243133202
96824.66119303115	10466336.20383741
98626.5846131283	10398624.052749181
100462.04213468132	10333507.145054102
102331.65783302448	10278851.745195735
104236.06739764012	10223179.199046059
106175.9183482999	10166470.577339524
108151.87025522892	10108706.598533712
110164.59496336569	10049867.622253444
112214.77682079801	9989933.642612798
114303.11291144785	9928884.281412916
116430.31329208757	9866698.781213189
118597.10123376705	9803355.998273503
120804.21346773289	9738834.395365164
123052.40043592616	9673112.034447962
125342.42654613995	9606166.569211042
127675.07043192645	9549798.492260894
130051.12521734099	9496098.129144374
132471.39878661174	9441398.39313283
134936.71405883064	9385680.685726618
137447.90926775365	9328926.062304877
140005.8382468096	9271115.225684121
142611.37071941295	9212228.519556986
145265.39259467812	9152245.921808908
147968.80626863963	9091147.03771034
150722.53093107554	9028911.092982357
153527.5028780421	8965516.926733168
156384.67583022476	8900942.984263178
159295.0212572123	8839395.079663942
162259.5287078087	8787950.9997648
165279.2061464897	8735549.536785217
168355.08029612005	8682172.873663168
171488.19698705408	8627802.86175805
174679.62151272455	8572421.01468
177930.43899185772	8516008.502004275
181241.75473742394	8458546.142868724
184614.69463245454	8400014.399452109
188050.40551285836	8340393.370330971
191550.0555573528	8279662.783713022
195114.83468466165	8217801.99054444
198745.9549580986	8154789.957489
202444.65099768018	8102646.780496312
206212.18039991445	8052812.57561929
210049.8241653915	8002050.947709923
213958.88713434213	7950344.6372677665
217940.6984302958	7897676.06359014
221996.61191199525	7844027.31879451
226128.00663372793	7789380.161729571
230336.2873142131	7733716.011773116
234622.88481422624	7677015.942514386
238989.25662310526	7619260.6753188865
243436.8873543108	7560430.57277349
247967.289250216	7500505.632009413
252582.00269627848	7443953.474640448
257282.59674479323	7396917.916236275
262070.66964838552	7349007.018086812
266947.8494034318	7300204.489970474
271915.7943036019	7250493.738501837
276976.1935036891	7199857.861489792
282130.76759394706	7148279.642190559
287381.2691851069	7095741.543453815
292729.4835042813	7042225.701759926
298177.22900196735	6987713.921146056
303726.3579703311	6932187.667019466
309378.75717301364	6875628.0598554555
315136.34848664823	6818015.868778159
321001.08955431683	6771236.40634339
326974.97445117676	6726359.076348167
333060.03436245886	6680646.571605592
339258.33827409917	6634083.349371503
345571.9936762143	6586653.577648621
352003.1472796675	6538341.129803531
358553.9857459817	6489129.5790833775
365226.7364308175	6439002.193030691
372023.6681413066	6387941.927794089
378947.09190746717	6335931.422333216
385999.36176797637	6282952.992515831
393182.87557057705	6228988.625104939
400500.07578736113	6178600.715392016
407953.45034524484	6136877.099916112
415545.53347188793	6094377.000856674
423278.90655735444	6051085.967722106
431156.19903182285	6006989.281094665
439180.0892596086	5962071.947625777
447353.3054498463	5916318.694938078
455678.6265841068	5869713.96643267
464158.8833612772	5822241.915999713
472796.9591600391	5773886.402630535
481595.79101923504	5724630.984929582
490558.37063650455	5674458.91552411
499687.7453854889	5623353.13536992
508987.0193519675	5582653.211047586
518459.3543892913	5543419.82960856
528107.971193433	5503456.308265162
537936.1503980698	5462749.058989534
547947.2336900292	5421284.240878298
558144.6249454955	5379047.755446536
568531.7913873753	5336025.241834086
579112.2647641759	5292202.071922778
589889.6425508494	5247563.3453626465
600867.5891719692	5202093.884505681
612049.837247669	5155778.229245275
623440.1888627863	5108600.631759577
635042.5168595961	5065028.711481042
646860.7661546321	5029049.866679649
658898.9550799957	4992401.449454487
671161.1767496272	4955070.9989488255
683651.6004510238	4917045.822407246
696374.4730628222	4878312.990860018
709334.1204987989	4838859.334727078
722534.9491787221	4798671.439340222
735981.4475265755	4757735.640382014
749678.1874966878	4716038.019239714
763629.8261282243	4673564.398272862
777841.1071286482	4630300.335992677
792316.8624866261	4586231.122151813
807062.0141149492	4551785.058960297
822081.575524054	4518378.223756001
837380.6535266489	4484349.681664185
852964.4499741016	4449687.862613877
868838.2635251193	4414380.981213126
885007.4914473438	4378417.032741836
901477.6314524917	4341783.789070011
918254.2835656281	4304468.79450009
935343.1520292377	4266459.361531853
952750.0472427299	4227742.56654854
970480.8877380306	4188305.2454226995
988541.7021919573	4148133.9890402104
1006938.6314760271	4111432.7628393117
1025677.9307444209	4081143.026597191
1044765.9715608053	4050289.5932096206
1064209.2440647245	4018861.972176815
1084014.359178331	3986849.477768993
1104188.0508541602	3954241.225393122
1124737.1783647507	3921026.127892048
1145668.7286348727	3887192.891774729
1166989.8186171474	3852730.013376342
1188707.6977119034	3817625.774946896
1210829.7502320393	3781868.2406670824
1233363.4979137746	3745445.252589964
1256316.6024741214	3708344.4265071377
1279696.8682159416	3679841.717201243
1303512.2446815087	3651996.8834854416
1327770.829355429	3623633.8526762226
1352480.8704178738	3594742.981037506
1377650.769549055	3565314.4453616347
1403289.084785873	3535338.239629397
1429404.533431761	3504804.171607853
1456005.9950206485	3473701.8593848725
1483102.514336103	3442020.7278391784
1510703.3044866556	3409750.0050446833
1538817.7500383465	3376878.7186079277
1567455.410205595	3343395.6919373395
1596626.022101425	3313124.028650488
1626339.5040481905	3288094.0249238466
1656605.9589499151	3262598.208568845
1687435.6777273756	3236627.910733215
1718839.1428171454	3210174.3012358616
1750827.0317357269	3183228.3855645205
1783410.220710006	3155781.0018175333
1816599.7883753285	3127822.817588672
1850407.019542302	3099344.3267940627
1884843.4090337954	3070335.84643998
1919920.6655932867	3040787.5133305374
1955650.715865947	3010689.2807141105
1992045.7084538713	2980030.91486729
2029118.0180466783	2956842.275442066
2066880.2496290822	2934000.2082219943
2105345.242766708	2910733.046244241
2144526.0759716653	2887032.8784230393
2184436.0711494284	2862891.6464459556
2225088.7981283693	2838301.142034005
2266498.079273693	2813253.0041507273
2308677.994187172	2787738.7161593493
2351642.884494346	2761749.602927049
2395407.358720879	2735276.8278752863
2439986.29725955	2708311.3899753126
2485394.857429798	2680844.1206876896
2531648.478631358	2656259.497200216
2578762.8875937983	2635851.521398527
2626754.1037238385	2615063.7496946245
2675638.4445520453	2593889.1140221506
2725432.531281028	2572320.4147768207
2776153.2944368036	2550350.3183684903
2827817.979625338	2527971.354727663
2880444.1533962977	2505175.9147655605
2934049.709215787	2481956.2477869857
2988652.873550383	2458304.458854973
3044272.2120643063	2434212.5061064404
3100926.6359319235	2409672.1980178733
3158635.408267819	2384675.1906200936
3217418.1506763715	2366032.770767065
3277294.849923382	2347502.270082356
3338285.8647317644	2328626.913626826
3400411.9327037027	2309400.2835759083
3463694.1773717343	2289815.842668213
3528154.1153808828	2269866.9319828176
3593813.6638046256	2249546.7686751406
3660695.147596906	2228848.4436707087
3728821.30718283	2207764.9193160054
3798215.306190736	2186289.026985568
3868900.7393279755	2164413.4646446127
3940901.6404034477	2142130.7943662344
4014242.490499326	2122378.1005171
4088948.226294856	2105890.1763763377
4165044.248545185	2089095.409161794
4242556.430717777	2071988.0884716595
4321511.127789762	2054562.3976325688
4401935.1852088785	2036812.4117218747
4483855.948021181	2018732.0955531213
4567301.270168747	2000315.3016239887
4652299.523960189	1981555.7680261103
4738879.609717651	1962447.116315928
4827070.965603188	1942982.849345966
4916903.577628021	1923156.3490557354
5008407.989848212	1902960.8742215023
5101615.314749833	1888092.0407029705
5196557.243827657	1873170.7254431911
5293266.058360566	1857971.7219674746
5391774.640387494	1842489.862450878
5492116.483887789	1826719.8828943423
5594325.706169377	1810656.421334905
5698437.0594691355	1794294.0160225523
5804485.942768984	1777627.1035631748
5912508.413831869	1760650.0170269567
6022541.201461928	1743356.9840215428
6134621.717992506	1725742.1247293875
6248788.072006888	1707799.4499085317
6365079.081295578	1692041.7921091756
6483534.286054714	1678800.7539827472
6604193.962330305	1665313.2978837413
6727099.135712336	1651574.8379317634
6852291.595284057	1637580.7029023971
6979813.907830667	1623326.1346389486
7109709.432312423	1608806.2864346195
7242022.334607315	1594016.2213845656
7376797.60252773	1578950.9107073145
7514081.061116962	1563605.2320349077
7653919.388230155	1547973.9676712453
7796360.130405221	1532051.802818026
7941451.71902934	1515833.3237676332
8089243.486805938	1504035.3236717945
8239785.684528512	1492078.0897482154
8393129.498166373	1479898.3296667228
8549327.066268368	1467491.9021776575
8708431.497690724	1454854.5889619896
8870496.889654402	1441982.0931970659
9035578.34613892	1428870.0380956244
9203731.99661823	1415513.9654176494
9375015.01514529	1401909.3339545229
9549485.639791967	1388051.5179849586
9727203.192450536	1373935.80570221
9908228.099003786	1359557.397612007
10092621.909870483	1347044.6705596724
10280447.320933098	1336452.1039007416
10471768.194855202	1325662.407773899
10666649.582795387	1314671.9135662052
10865157.746525371	1303476.8843912077
11067360.180959744	1292073.5138183606
11273325.63710487	1280457.924578803
11483124.14543511	1268626.1672470353
11696827.039703846	1256574.2188980791
11914506.981197748	1244297.9817396374
12136237.983442418	1231793.281718801
12362095.437367693	1219055.8671028286
12592156.13694151	1206128.9352304793
12826498.3052806	1196750.964135952
13065201.621247198	1187198.4674036382
13308347.24654076	1177468.1970817205
13556017.853293689	1167556.844773449
13808297.652180923	1157461.040512245
14065272.421052363	1147177.3516158785
14327029.534098294	1136702.2815193192
14593657.991557576	1126032.2685858663
14865248.449978571	1115163.6848961564
15141893.25304352	1104092.8350146266
15423686.462966273	1092815.9547330306
15710723.892474487	1081329.2097905655
16003103.137387017	1071422.4900438753
16300923.609797413	1062969.3927983348
16604286.571875297	1054358.9819747098
16913295.17029647	1045588.3299405443
17228054.471313924	1036654.4545796444
17548671.49648152	1027554.3182781247
17875255.259042352	1018284.826891592
18207916.800994623	1008842.8286930968
18546769.230846975	999225.1133015149
18891927.762076646	989428.410589984
19243509.75230332	979449.3895740231
19601634.743191857	969284.6572789662
19966424.501097932	959044.7561947252
20338003.0584698	951567.3815793314
20716496.75602067	943950.8517500248
21102034.285685964	936192.5770045966
