# Frequency (Hz)	Real Part (Ohm/m)
1000.0	13085559.128525658
1018.6101701559753	13146188.818862474
1037.566678745186	13207946.838052968
1056.875971184804	13270854.184489086
1076.5446128423157	13334932.247346446
1096.5792912678098	13400202.813856844
1116.9868184678226	13466688.076716177
1137.7741332214914	13534410.641630191
1158.9483034398106	13603393.53500065
1180.5165285688054	13673660.211754585
1202.4861420374123	13745234.563319206
1224.8646137509306	13818140.925745247
1247.6595526308697	13892404.087981496
1270.8787092020582	13957895.644277887
1294.529978227916	14014858.202781748
1318.6214013947485	14072880.844191886
1343.1611700460153	14131983.296831565
1368.1576279674719	14192185.656171506
1393.619274224142	14253508.391662555
1419.5547660501015	14315972.353695523
1445.9729217920194	14379598.780690536
1472.882723907502	14444409.306318348
1500.2933220192183	14510425.96685599
1528.2140360258693	14577671.208679369
1556.654359271062	14646167.895895256
1585.6239617711371	14715448.804832047
1615.132693503091	14766711.646205254
1645.1905877536624	14818928.497779088
1675.807864530767	14872117.113845726
1706.9949340384078	14926295.579107724
1738.7624002162504	14981482.314827034
1771.1210643450886	15037696.08508844
1804.0819287193826	15094956.003179515
1837.6562003881704	15153281.53808938
1871.8552949655793	15212692.521128362
1906.690840512252	15273209.152670827
1942.1746814890264	15334852.009023571
1978.3188827841643	15397642.049421933
2015.1357338155585	15451307.458763367
2052.6377527092523	15497032.66158028
2090.8376905557498	15543608.818202034
2129.748535745521	15591051.765023733
2169.3835183851843	15639377.63315848
2209.756114795903	15688602.853922153
2250.880052095462	15738744.1644202
2292.7693128656488	15789818.613238461
2335.438139906479	15841843.566239854
2378.9010410788933	15894836.712468956
2423.1727942376006	15948816.07016649
2468.2684522556924	16003799.99289568
2514.2033481427966	16058904.47842649
2560.9931002584594	16097724.151062496
2608.6536176225477	16137266.264411656
2657.2011053245064	16177544.263218576
2706.652070033241	16218571.842436831
2757.0233256095826	16260362.951885425
2808.3319988231724	16302931.800991865
2860.5955351757416	16346292.86362352
2913.831704832789	16390460.883008895
2968.0586086656026	16435450.876750482
3023.2946844057765	16481278.14193092
3079.5587129142264	16527958.260314148
3136.8698245668766	16575507.103643386
3195.2475057592133	16614537.519638617
3254.711605531848	16646912.8777886
3315.282342319423	16679890.746862609
3376.9803108250912	16713482.33969147
3439.8264890229243	16747699.077778682
3503.8422452906757	16782552.595183883
3569.0493456752292	16818054.742478527
3635.4699612933177	16854217.590775233
3703.126675869927	16891053.435832057
3772.0424934169973	16928574.80223323
3842.240846055061	16966794.447647624
3913.745601980384	17005725.367166467
3986.581073580439	17044263.6032126
4060.7720257003657	17069612.50920827
4136.343684063274	17095433.16265779
4213.321743847289	17121734.34286154
4291.732378422157	17148524.99250419
4371.602248248501	17175814.22069528
4452.958509942655	17203611.306066424
4535.828825510186	17231925.699926175
4620.241371751313	17260767.029473517
4706.224849841281	17290145.101071253
4793.808495089106	17320069.90358028
4883.02208687788	17350551.611755885
4973.895958790063	17381600.58970729
5066.461008921268	17405600.43893911
5160.7487103859075	17424642.245620344
5256.791122018419	17444038.42356399
5354.620899273607	17463795.567679547
5454.271305329836	17483920.395608883
5555.7762223988775	17504419.750010353
5659.170163246242	17525300.600885313
5764.488282925873	17546570.047948062
5871.766390733255	17568235.323039778
5981.040962380945	17590303.792587418
6092.349152400711	17612782.960108425
6205.7288067765	17635680.468761966
6321.218475812449	17657920.69069908
6438.8574272404185	17670733.66767007
6558.685659571435	17683785.0963227
6680.743915695614	17697079.41428333
6805.073696735206	17710621.141763322
6931.717276155407	17724414.883095913
7060.717714137772	17738465.328301795
7192.118872221193	17752777.25468373
7325.96542821523	17767355.528450888
7462.302891391108	17782205.106373437
7601.17761795533	17797331.037467863
7742.636826811269	17812738.464713734
7886.728615614156	17828432.626802307
8033.501977124735	17839035.99967034
8183.00681586739	17846399.688546825
8335.293965098195	17853900.416926272
8490.415204088747	17861540.735137157
8648.423275731726	17869323.240969993
8809.37190447399	17877250.580560617
8973.31581458352	17885325.449289903
9140.310748756232	17893550.59270023
9310.413487069076	17901928.807428975
9483.681866285926	17910462.942159437
9660.174799522645	17919155.898589358
9839.952296278227	17928010.632417604
10023.075482838643	17936184.14770536
10209.606623060476	17938532.812366717
10399.609139541202	17940925.186077055
10593.1476351837	17943362.08226922
10790.287915161836	17945844.329514176
10991.097009294961	17948372.771802727
11195.643194838794	17950948.268832494
11403.99601970033	17953571.696300227
11616.22632608502	17956243.946199525
11832.40627458378	17958965.927124143
12052.609368708414	17961738.564576942
12276.910479883603	17964562.801284507
12505.385872903913	17967439.597517762
12738.113231864783	17967183.43875495
12975.171686575868	17965093.810953356
13216.641839466038	17962965.294822805
13462.60579298911	17960797.166644886
13713.147177539455	17958588.68923266
13968.351179887397	17956339.111680005
14228.30457214352	17954047.66910632
14493.09574126215	17951713.582396433
14762.81471909391	17949336.05793571
15037.553212997384	17946914.287340228
15317.404637020798	17944447.447181884
15602.46414366368	17941934.698708445
15892.828656229764	17938862.41630869
16188.596901781993	17932800.314134564
16489.86944471065	17926625.395207483
16796.74872092653	17920335.559988465
17109.339072690134	17913928.669865776
17427.746784089173	17907402.546427727
17752.08011717636	17900754.97072204
18082.44934877952	17893983.68250134
18418.96680799711	17887086.37945468
18761.746914391195	17880060.716424707
19110.90621689136	17872904.30461029
19466.56343342263	17865614.710754294
19828.83949127071	17858189.456316266
20197.857568198782	17849222.000261035
20573.743134329114	17839365.783644993
20956.623994804308	17829326.141160637
21346.630333242454	17819099.659221344
21743.8947560008	17808682.860713065
22148.55233726359	17798072.203812063
22560.74066496859	17787264.08078067
22980.599887588487	17776254.816740595
23408.272761782944	17765040.668423444
23843.904700937208	17753617.82289795
24287.643824604504	17741982.396273565
24739.64100886812	17730130.432379864
25200.049937640895	17717878.38506249
25669.027154919517	17704544.187468417
26146.732118010917	17690961.838188224
26633.327251749808	17677126.71907681
27128.978003724646	17663034.126044612
27633.852900531667	17648679.267458137
28148.123605075813	17634057.262510803
28671.964974937695	17619163.13956338
29205.55512182745	17603991.834453583
29749.075472144435	17588538.188774206
30302.71082866393	17572796.948119204
30866.649433372742	17556762.760297142
31441.08303147265	17540430.1735114
32026.206936576502	17523713.845825832
32622.220097116733	17506649.821133208
33229.325163989684	17489268.23203752
33847.72855945983	17471563.16861117
34477.640547344636	17453528.610941835
35119.275304507275	17435158.427085586
35772.850993678774	17416446.370981973
36438.58983763541	17397386.080330312
37116.71819475767	17377971.074426398
37807.466635993485	17358194.75195903
38511.070023255685	17338050.388765488
39227.76758927723	17317531.135545224
39957.803018952654	17296768.42746821
40701.42453219439	17276178.102562822
41458.88496832911	17255204.588207386
42230.441872066716	17233840.75318102
43016.35758106799	17212079.333549637
43816.89931514194	17189912.93019607
44632.33926710397	17167334.00630435
45462.95469532399	17144334.884797063
46309.02801799736	17120907.745725095
47170.84690917023	17097044.623608723
48048.704396551344	17072737.404729314
48942.89896114532	17047977.824370544
49853.73463873894	17022757.4640083
50781.5211232767	16998123.166669674
51726.57387216024	16973460.23336704
52689.21421350677	16948338.318679105
53669.76945540476	16922748.88088419
54668.57299720181	16896683.21929771
55685.96444286408	16870132.47131387
56722.28971644549	16843087.609392293
57777.90117970507	16815539.4379885
58853.1577519145	16787478.59042741
59948.42503189408	16758895.525718482
61064.07542232036	16729780.525311738
62200.48825634718	16700123.689793333
63358.04992658254	16670433.211345877
64537.15401646702	16641991.908551449
65738.20143409586	16613021.308272555
66961.60054853215	16583511.560192956
68207.76732865692	16553452.630680328
69477.1254846024	16522834.29937477
70770.10661181889	16491646.15571372
72087.15033782135	16459877.595392289
73428.70447166759	16427517.81675767
74795.22515621828	16394555.817136442
76187.17702322999	16360980.389093589
77605.0333513357	16326780.1166218
79049.2762269642	16291943.371259924
80520.39670825469	16258854.55752451
82018.8949920221	16226010.751694249
83545.28058382872	16192555.717048923
85100.07247122246	16158478.07851627
86683.79930019773	16123766.24933201
88296.99955494082	16088408.427100211
89940.22174092053	16052392.589780325
91614.0245713852	16015706.49159961
93318.9771573324	15978337.658889394
95055.65920101192	15940273.385843912
96824.66119303115	15901500.730200188
98626.5846131283	15862006.508837536
100462.04213468132	15822851.713702518
102331.65783302448	15786221.3798938
104236.06739764012	15748909.349340027
106175.9183482999	15710902.935548786
108151.87025522892	15672189.215929866
110164.59496336569	15632755.027401475
112214.77682079801	15592586.961914605
114303.11291144785	15551671.36189419
116430.31329208757	15509994.315595359
118597.10123376705	15467541.652373303
120804.21346773289	15424298.937865114
123052.40043592616	15380251.469081925
125342.42654613995	15335384.269409738
127675.07043192645	15293893.17519868
130051.12521734099	15252953.714527754
132471.39878661174	15211252.363527661
134936.71405883064	15168774.943289718
137447.90926775365	15125507.011033364
140005.8382468096	15081433.855195416
142611.37071941295	15036540.490428014
145265.39259467812	14990811.652503416
147968.80626863963	14944231.793124013
150722.53093107554	14896785.074635709
153527.5028780421	14848455.364643004
156384.67583022476	14799226.230523733
159295.0212572123	14750953.58213181
162259.5287078087	14706765.310323777
165279.2061464897	14661754.687258488
168355.08029612005	14615906.40883913
171488.19698705408	14569204.886157032
174679.62151272455	14521634.240191279
177930.43899185772	14473178.296409668
181241.75473742394	14423820.579269215
184614.69463245454	14373544.306614276
188050.40551285836	14322332.383970404
191550.0555573528	14270167.398732126
195114.83468466165	14217031.614242379
198745.9549580986	14162906.963761898
202444.65099768018	14114253.780683817
206212.18039991445	14066459.560683299
210049.8241653915	14017775.8821161
213958.88713434213	13968186.192006944
217940.6984302958	13917673.629326874
221996.61191199525	13866221.01926032
226128.00663372793	13813810.867365452
230336.2873142131	13760425.353625923
234622.88481422624	13706046.32639184
238989.25662310526	13650655.296208004
243436.8873543108	13594233.429527346
247967.289250216	13536761.542307232
252582.00269627848	13481092.647471922
257282.59674479323	13431152.489282086
262070.66964838552	13380282.936250718
266947.8494034318	13328466.692181693
271915.7943036019	13275686.138993684
276976.1935036891	13221923.330729926
282130.76759394706	13167159.987456314
287381.2691851069	13111377.489046065
292729.4835042813	13054556.868848694
298177.22900196735	12996678.807241065
303726.3579703311	12937723.625058627
309378.75717301364	12877671.2769042
315136.34848664823	12816501.34433234
321001.08955431683	12763091.387263466
326974.97445117676	12710759.93033563
333060.03436245886	12657454.576089857
339258.33827409917	12603157.20013135
345571.9936762143	12547849.340767223
352003.1472796675	12491512.19272938
358553.9857459817	12434126.60078044
365226.7364308175	12375673.053200833
372023.6681413066	12316131.675154548
378947.09190746717	12255482.221931497
385999.36176797637	12193704.072064111
393182.87557057705	12130776.220315753
400500.07578736113	12070610.884626646
407953.45034524484	12017571.389224276
415545.53347188793	11963544.819787469
423278.90655735444	11908512.806700518
431156.19903182285	11852456.638485981
439180.0892596086	11795357.255442683
447353.3054498463	11737195.243165147
455678.6265841068	11677950.825942505
464158.8833612772	11617603.860034572
472796.9591600391	11556133.826822683
481595.79101923504	11493519.825833237
490558.37063650455	11429740.56763123
499687.7453854889	11364774.36658165
508987.0193519675	11309643.746677887
518459.3543892913	11255649.949900042
528107.971193433	11200651.319376808
537936.1503980698	11144629.154981181
547947.2336900292	11087564.40857364
558144.6249454955	11029437.677525565
568531.7913873753	10970229.19812206
579112.2647641759	10909918.838842185
589889.6425508494	10848486.093513941
600867.5891719692	10785910.074341988
612049.837247669	10722169.504805574
623440.1888627863	10657242.71242423
635042.5168595961	10595983.754226798
646860.7661546321	10542724.34424288
658898.9550799957	10488473.767576749
671161.1767496272	10433213.578447815
683651.6004510238	10376924.987796325
696374.4730628222	10319588.85689498
709334.1204987989	10261185.690841476
722534.9491787221	10201695.631930059
735981.4475265755	10141098.452899728
749678.1874966878	10079373.550056655
763629.8261282243	10016499.936268814
777841.1071286482	9952456.23383007
792316.8624866261	9887220.667191507
807062.0141149492	9833331.523559894
822081.575524054	9780460.41336006
837380.6535266489	9726605.362803074
852964.4499741016	9671748.060591467
868838.2635251193	9615869.854651393
885007.4914473438	9558951.745790774
901477.6314524917	9500974.381239302
918254.2835656281	9441918.04806833
935343.1520292377	9381762.666488262
952750.0472427299	9320487.78302118
970480.8877380306	9258072.563546497
988541.7021919573	9194495.786217071
1006938.6314760271	9135290.820378674
1025677.9307444209	9084328.13560831
1044765.9715608053	9032417.026602762
1064209.2440647245	8979539.843025643
1084014.359178331	8925678.606064783
1104188.0508541602	8870815.00231927
1124737.1783647507	8814930.377572682
1145668.7286348727	8758005.730450455
1166989.8186171474	8700021.705959218
1188707.6977119034	8640958.588905869
1210829.7502320393	8580796.297194218
1233363.4979137746	8519514.37499684
1256316.6024741214	8457091.985799873
1279696.8682159416	8406787.62347068
1303512.2446815087	8357246.00444426
1327770.829355429	8306782.407457952
1352480.8704178738	8255379.67434505
1377650.769549055	8203020.327622423
1403289.084785873	8149686.564548042
1429404.533431761	8095360.251067787
1456005.9950206485	8040022.91564972
1483102.514336103	7983655.743003542
1510703.3044866556	7926239.5676832
1538817.7500383465	7867754.86757045
1567455.410205595	7808181.7572370805
1596626.022101425	7753403.820825602
1626339.5040481905	7706544.263082597
1656605.9589499151	7658812.640996556
1687435.6777273756	7610192.725301676
1718839.1428171454	7560667.984702748
1750827.0317357269	7510221.580254337
1783410.220710006	7458836.359635396
1816599.7883753285	7406494.85131722
1850407.019542302	7353179.258623032
1884843.4090337954	7298871.453676836
1919920.6655932867	7243552.971239787
1955650.715865947	7187205.002431828
1992045.7084538713	7129808.388336396
2029118.0180466783	7084580.142651343
2066880.2496290822	7039791.186794483
2105345.242766708	6994168.70084801
2144526.0759716653	6947697.172675147
2184436.0711494284	6900360.801455565
2225088.7981283693	6852143.492313028
2266498.079273693	6803028.850842886
2308677.994187172	6753000.177537826
2351642.884494346	6702040.462109894
2395407.358720879	6650132.377706736
2439986.29725955	6597258.275020372
2485394.857429798	6543400.176286169
2531648.478631358	6494475.015261627
2578762.8875937983	6452743.779389347
2626754.1037238385	6410235.918116656
2675638.4445520453	6366936.978312717
2725432.531281028	6322832.237871454
2776153.2944368036	6277906.700705892
2827817.979625338	6232145.091649337
2880444.1533962977	6185531.851261619
2934049.709215787	6138051.130538769
2988652.873550383	6089686.785524138
3044272.2120643063	6040422.371819298
3100926.6359319235	5990241.138992787
3158635.408267819	5939126.024884726
3217418.1506763715	5899654.50876139
3277294.849923382	5860295.844789982
3338285.8647317644	5820204.709384946
3400411.9327037027	5779367.47112829
3463694.1773717343	5737770.244918965
3528154.1153808828	5695398.887251873
3593813.6638046256	5652238.991408859
3660695.147596906	5608275.882560286
3728821.30718283	5563494.612775464
3798215.306190736	5517879.955940138
3868900.7393279755	5471416.402579502
3940901.6404034477	5424088.154584777
4014242.490499326	5381591.05816959
4088948.226294856	5345349.014973204
4165044.248545185	5308432.501186125
4242556.430717777	5270828.964795909
4321511.127789762	5232525.620195001
4401935.1852088785	5193509.443833525
4483855.948021181	5153767.169791134
4567301.270168747	5113285.285266421
4652299.523960189	5072050.025982471
4738879.609717651	5030047.371506824
4827070.965603188	4987263.040484375
4916903.577628021	4943682.485781601
5008407.989848212	4899290.889540304
5101615.314749833	4865634.334559687
5196557.243827657	4831806.027378847
5293266.058360566	4797348.169645278
5391774.640387494	4762249.045316085
5492116.483887789	4726496.72031079
5594325.706169377	4690079.038453681
5698437.0594691355	4652983.617340524
5804485.942768984	4615197.84412844
5912508.413831869	4576708.871247411
6022541.201461928	4537503.612031931
6134621.717992506	4497568.736271445
6248788.072006888	4456890.665677898
6365079.081295578	4420769.347023291
6483534.286054714	4389903.328465833
6604193.962330305	4358462.888050975
6727099.135712336	4326437.335690225
6852291.595284057	4293815.782350699
6979813.907830667	4260587.13635277
7109709.432312423	4226740.099598775
7242022.334607315	4192263.1637315038
7376797.60252773	4157144.6062212894
7514081.061116962	4121372.486380178
7653919.388230155	4084934.64130198
7796360.130405221	4047818.6817267677
7941451.71902934	4010011.98782835
8089243.486805938	3981825.2573698713
8239785.684528512	3953245.853683399
8393129.498166373	3924134.582431362
8549327.066268368	3894481.5454678726
8708431.497690724	3864276.660440847
8870496.889654402	3833509.6573639284
9035578.34613892	3802170.0751245595
9203731.99661823	3770247.257927095
9375015.01514529	3737730.3516697315
9549485.639791967	3704608.300253972
9727203.192450536	3670869.841825451
9908228.099003786	3636503.504944775
10092621.909870483	3606312.806532352
10280447.320933098	3580420.055249727
10471768.194855202	3554045.4354599253
10666649.582795387	3527179.9795080367
10865157.746525371	3499814.552849565
11067360.180959744	3471939.850944585
11273325.63710487	3443546.396094111
11483124.14543511	3414624.5342175527
11696827.039703846	3385164.4315702426
11914506.981197748	3355156.0713998554
12136237.983442418	3324589.2505405913
12362095.437367693	3293453.575944013
12592156.13694151	3261848.8628289923
12826498.3052806	3238458.562464686
13065201.621247198	3214632.9646306005
13308347.24654076	3190363.9683667514
13556017.853293689	3165643.3219529213
13808297.652180923	3140462.620102964
14065272.421052363	3114813.301106932
14327029.534098294	3088686.6439199983
14593657.991557576	3062073.7651972063
14865248.449978571	3034965.616273045
15141893.25304352	3007352.980084793
15423686.462966273	2979226.4680386223
15710723.892474487	2950576.516817378
16003103.137387017	2925668.5603376483
16300923.609797413	2904200.900430862
16604286.571875297	2882333.723720359
16913295.17029647	2860059.5951304436
17228054.471313924	2837370.941217394
17548671.49648152	2814260.047594409
17875255.259042352	2790719.056308647
18207916.800994623	2766739.963169417
18546769.230846975	2742314.615026679
18891927.762076646	2717434.7069988856
19243509.75230332	2692091.779649228
19601634.743191857	2666277.2161093443
19966424.501097932	2640260.253889572
20338003.0584698	2620960.9829884553
20716496.75602067	2601302.5493719825
21102034.285685964	2581278.268960906
