# Frequency (Hz)	Real Part (Ohm)
1000.0	0.0009627794985
1018.6101701559753	0.0009755558280504637
1037.566678745186	0.000988569927267831
1056.875971184804	0.0010018262210860595
1076.5446128423157	0.0010153292167878836
1096.5792912678098	0.0010290835055373332
1116.9868184678226	0.0010430937639407847
1137.7741332214914	0.0010573647556370543
1158.9483034398106	0.0010719013329170853
1180.5165285688054	0.0010867084383737835
1202.4861420374123	0.001101791106582548
1224.8646137509306	0.0011171544658130836
1247.6595526308697	0.0011328037397730678
1270.8787092020582	0.0011481276710141835
1294.529978227916	0.0011631448499517369
1318.6214013947485	0.0011784415011445802
1343.1611700460153	0.0011940228256189385
1368.1576279674719	0.0012098941211930213
1393.619274224142	0.0012260607842783326
1419.5547660501015	0.0012425283117145165
1445.9729217920194	0.0012593023026383353
1472.882723907502	0.0012763884603874415
1500.2933220192183	0.0012937925944395707
1528.2140360258693	0.0013115206223878267
1556.654359271062	0.0013295785719527305
1585.6239617711371	0.0013479364945071554
1615.132693503091	0.0013652155583634162
1645.1905877536624	0.0013828161885381775
1675.807864530767	0.0014007443694353434
1706.9949340384078	0.0014190061968295934
1738.7624002162504	0.0014376078799390086
1771.1210643450886	0.0014565557435362786
1804.0819287193826	0.001475856230099185
1837.6562003881704	0.00149551590200112
1871.8552949655793	0.001515541443742362
1906.690840512252	0.0015359396642228732
1942.1746814890264	0.0015567174990574063
1978.3188827841643	0.001577882012933682
2015.1357338155585	0.0015985054116770614
2052.6377527092523	0.0016187006384359816
2090.8376905557498	0.0016392717018012231
2129.748535745521	0.0016602255961559826
2169.3835183851843	0.0016815694460501135
2209.756114795903	0.0017033105086225592
2250.880052095462	0.001725456176068848
2292.7693128656488	0.0017480139781545301
2335.438139906479	0.0017709915847753726
2378.9010410788933	0.0017943968085652052
2423.1727942376006	0.0018182376075523065
2468.2684522556924	0.001842522087865211
2514.2033481427966	0.0018671551645941678
2560.9931002584594	0.0018902649608910213
2608.6536176225477	0.0019138048344292276
2657.2011053245064	0.0019377827890194313
2706.652070033241	0.0019622069774245495
2757.0233256095826	0.0019870857041318084
2808.3319988231724	0.0020124274281763553
2860.5955351757416	0.0020382407660174155
2913.831704832789	0.002064534494467993
2968.0586086656026	0.002091317553679069
3023.2946844057765	0.0021185990501793608
3079.5587129142264	0.0021463882599716344
3136.8698245668766	0.0021746946316866405
3195.2475057592133	0.0022021403051874556
3254.711605531848	0.002229007599251407
3315.282342319423	0.00225637489822952
3376.9803108250912	0.002284251507298326
3439.8264890229243	0.002312646904805272
3503.8422452906757	0.0023415707454914714
3569.0493456752292	0.0023710328637744026
3635.4699612933177	0.002401043277091736
3703.126675869927	0.002431612189307357
3772.0424934169973	0.0024627499941807926
3842.240846055061	0.002494467278901208
3913.745601980384	0.002526774827687153
3986.581073580439	0.0025594658985179327
4060.7720257003657	0.0025900551501071875
4136.343684063274	0.00262121367287346
4213.321743847289	0.0026529520610502227
4291.732378422157	0.0026852811060314305
4371.602248248501	0.0027182118000407176
4452.958509942655	0.002751755339868875
4535.828825510186	0.002785923130680866
4620.241371751313	0.0028207267898937237
4706.224849841281	0.0028561781511265813
4793.808495089106	0.002892289268224243
4883.02208687788	0.002929072419355618
4973.895958790063	0.002966540111188418
5066.461008921268	0.0030026884856869025
5160.7487103859075	0.00303808056762127
5256.791122018419	0.0030741313022226106
5354.620899273607	0.0031108529471291324
5454.271305329836	0.0031482579880957712
5555.7762223988775	0.0031863591432394886
5659.170163246242	0.0032251693673635696
5764.488282925873	0.003264701856362392
5871.766390733255	0.003304970051708173
5981.040962380945	0.0033459876450212143
6092.349152400711	0.0033877685827251964
6205.7288067765	0.0034303270707891262
6321.218475812449	0.003473277230758685
6438.8574272404185	0.0035133901488144264
6558.685659571435	0.003554249575100638
6680.743915695614	0.0035958694022625096
6805.073696735206	0.0036382637814897263
6931.717276155407	0.00368144712732802
7060.717714137772	0.0037254341225802664
7192.118872221193	0.0037702397232988105
7325.96542821523	0.003815879163870664
7462.302891391108	0.0038623679621973836
7601.17761795533	0.003909721924971313
7742.636826811269	0.003957957153050021
7886.728615614156	0.004007090046930791
8033.501977124735	0.004054262960081262
8183.00681586739	0.0041004784641338644
8335.293965098195	0.0041475540465807335
8490.415204088747	0.004195505713627126
8648.423275731726	0.004244349769356519
8809.37190447399	0.004294102821274139
8973.31581458352	0.004344781785953727
9140.310748756232	0.004396403894789333
9310.413487069076	0.004448986699854178
9483.681866285926	0.00450254807986856
9660.174799522645	0.004557106246278796
9839.952296278227	0.004612679749449324
10023.075482838643	0.004668608914741046
10209.606623060476	0.004720784893446861
10399.609139541202	0.00477393187599444
10593.1476351837	0.0048280679329305055
10790.287915161836	0.004883211471097724
10991.097009294961	0.004939381239893238
11195.643194838794	0.0049965963376436655
11403.99601970033	0.005054876218098711
11616.22632608502	0.0051142406970456945
11832.40627458378	0.005174709959047104
12052.609368708414	0.005236304564303566
12276.910479883603	0.005299045455644547
12505.385872903913	0.005362953965649114
12738.113231864783	0.005424026448109065
12975.171686575868	0.005483925369865372
13216.641839466038	0.0055449390207477234
13462.60579298911	0.00560708814605484
13713.147177539455	0.0056703938771589584
13968.351179887397	0.005734877738690775
14228.30457214352	0.005800561655858012
14493.09574126215	0.005867467961900241
14762.81471909391	0.0059356194056824334
15037.553212997384	0.00600503915942978
15317.404637020798	0.00607575082660655
15602.46414366368	0.006147778449941493
15892.828656229764	0.006220058687917863
16188.596901781993	0.0062874625406269405
16489.86944471065	0.006356120790504095
16796.74872092653	0.006426056782094072
17109.339072690134	0.006497294294387569
17427.746784089173	0.006569857548906335
17752.08011717636	0.0066437712179387735
18082.44934877952	0.006719060432928752
18418.96680799711	0.006795750793020602
18761.746914391195	0.006873868373763083
19110.90621689136	0.006953439735975358
19466.56343342263	0.007034491934777955
19828.83949127071	0.007117052528791775
20197.857568198782	0.0071955974983050775
20573.743134329114	0.0072727495967111816
20956.623994804308	0.007351337508796515
21346.630333242454	0.007431387955297967
21743.8947560008	0.007512928154229863
22148.55233726359	0.007595985830138435
22560.74066496859	0.007680589223528425
22980.599887588487	0.007766767100465176
23408.272761782944	0.007854548762355413
23843.904700937208	0.00794396405590999
24287.643824604504	0.008035043383292159
24739.64100886812	0.008127817712454608
25200.049937640895	0.00822064409323593
25669.027154919517	0.008307230755854409
26146.732118010917	0.008395428810997448
26633.327251749808	0.008485268246954124
27128.978003724646	0.008576779610100673
27633.852900531667	0.008669994015286583
28148.123605075813	0.008764943156414
28671.964974937695	0.008861659317213954
29205.55512182745	0.008960175382223224
29749.075472144435	0.00906052484796543
30302.71082866393	0.009162741834340135
30866.649433372742	0.009266861096224125
31441.08303147265	0.009372918035288282
32026.206936576502	0.009473387059634877
32622.220097116733	0.00957225689815517
33229.325163989684	0.009672966721193596
33847.72855945983	0.009775550771175168
34477.640547344636	0.009880043927782177
35119.275304507275	0.009986481719813778
35772.850993678774	0.010094900337266123
36438.58983763541	0.010205336643637307
37116.71819475767	0.010317828188461485
37807.466635993485	0.01043241322007593
38511.070023255685	0.010549130698626053
39227.76758927723	0.01066802030931218
39957.803018952654	0.010786622723805057
40701.42453219439	0.010897340638760694
41458.88496832911	0.01101011903295296
42230.441872066716	0.01112499625225106
43016.35758106799	0.01124201135614736
43816.89931514194	0.01136120413103797
44632.33926710397	0.011482615103750659
45462.95469532399	0.011606285555324334
46309.02801799736	0.011732257535045063
47170.84690917023	0.011860573874743294
48048.704396551344	0.011991278203357084
48942.89896114532	0.012124414961766503
49853.73463873894	0.012260029417903934
50781.5211232767	0.01238797415584632
51726.57387216024	0.012514148716996916
52689.21421350677	0.012642671408199871
53669.76945540476	0.012773585928555018
54668.57299720181	0.01290693679040986
55685.96444286408	0.013042769334494265
56722.28971644549	0.013181129745336816
57777.90117970507	0.013322065066967982
58853.1577519145	0.01346562321891569
59948.42503189408	0.013611853012498426
61064.07542232036	0.013760804167421608
62200.48825634718	0.013912527328682858
63358.04992658254	0.014063429780053318
64537.15401646702	0.014204471589646639
65738.20143409586	0.014348138211315597
66961.60054853215	0.014494478493259546
68207.76732865692	0.014643542192751166
69477.1254846024	0.014795379993054388
70770.10661181889	0.01495004352065736
72087.15033782135	0.015107585362825948
73428.70447166759	0.015268059085483976
74795.22515621828	0.015431519251426253
76187.17702322999	0.015598021438870423
77605.0333513357	0.015767622260354268
79049.2762269642	0.015940379381984525
80520.39670825469	0.016102724575316293
82018.8949920221	0.01626319587194706
83545.28058382872	0.016426653566713263
85100.07247122246	0.016593153236992363
86683.79930019773	0.016762751494466273
88296.99955494082	0.016935506004369928
89940.22174092053	0.017111475505098124
91614.0245713852	0.01729071982817711
93318.9771573324	0.017473299918608094
95055.65920101192	0.017659277855589094
96824.66119303115	0.017848716873622557
98626.5846131283	0.01804168138401583
100462.04213468132	0.01823302341809154
102331.65783302448	0.018412140644609384
104236.06739764012	0.018594591273190592
106175.9183482999	0.01878043733901476
108151.87025522892	0.01896974203174676
110164.59496336569	0.019162569717021804
112214.77682079801	0.019358985958330594
114303.11291144785	0.019559057539311545
116430.31329208757	0.019762852486457923
118597.10123376705	0.019970440092247646
120804.21346773289	0.020181890938703366
123052.40043592616	0.02039727692139125
125342.42654613995	0.02061667127386617
127675.07043192645	0.020822059454509545
130051.12521734099	0.021025583481007876
132471.39878661174	0.021232895124270148
134936.71405883064	0.021444064872488844
137447.90926775365	0.021659164525653685
140005.8382468096	0.021878267219964415
142611.37071941295	0.022101447452697924
145265.39259467812	0.022328781107538036
147968.80626863963	0.022560345480376897
150722.53093107554	0.022796219305596346
153527.5028780421	0.023036482782838475
156384.67583022476	0.023281217604274373
159295.0212572123	0.0235231628732356
162259.5287078087	0.023750069594054454
165279.2061464897	0.023981199087557307
168355.08029612005	0.024216629940262257
171488.19698705408	0.02445644220119607
174679.62151272455	0.02470071740911132
177930.43899185772	0.024949538620210765
181241.75473742394	0.025202990436387213
184614.69463245454	0.02546115903398898
188050.40551285836	0.025724132193121117
191550.0555573528	0.02599199932749112
195114.83468466165	0.02626485151481094
198745.9549580986	0.026542781527764243
202444.65099768018	0.02680201709085158
206212.18039991445	0.027059577238539367
210049.8241653915	0.027321930624401
213958.88713434213	0.027589166451414505
217940.6984302958	0.02786137558264054
221996.61191199525	0.028138650572116643
226128.00663372793	0.028421085696326953
230336.2873142131	0.028708776986256807
234622.88481422624	0.02900182226004465
238989.25662310526	0.029300321156241114
243436.8873543108	0.029604375167687113
247967.289250216	0.029914087676022792
252582.00269627848	0.03021935152614247
257282.59674479323	0.030506246471505717
262070.66964838552	0.0307984805806191
266947.8494034318	0.03109615321622839
271915.7943036019	0.031399365590237226
276976.1935036891	0.03170822079811972
282130.76759394706	0.032022823853974466
287381.2691851069	0.03234328172623029
292729.4835042813	0.032669703374016555
298177.22900196735	0.03300219978421079
303726.3579703311	0.03334088400917494
309378.75717301364	0.033685871205194826
315136.34848664823	0.03403727867163432
321001.08955431683	0.03436390070238173
326974.97445117676	0.03468930544443918
333060.03436245886	0.03502076602411584
339258.33827409917	0.03535839514158029
345571.9936762143	0.035702307594370396
352003.1472796675	0.03605262031642561
358553.9857459817	0.036409452417846155
365226.7364308175	0.03677292522539121
372023.6681413066	0.03714316232373175
378947.09190746717	0.0375202895974705
385999.36176797637	0.0379044352739439
393182.87557057705	0.03829572996682124
400500.07578736113	0.0386802580478679
407953.45034524484	0.039042493843009805
415545.53347188793	0.03941147090793594
423278.90655735444	0.039787314698823906
431156.19903182285	0.04017015300661246
439180.0892596086	0.04056011600045113
447353.3054498463	0.04095733627195969
455678.6265841068	0.04136194888031045
464158.8833612772	0.04177409139814979
472796.9591600391	0.04219390395837473
481595.79101923504	0.042621529301779024
490558.37063650455	0.04305711282558708
499687.7453854889	0.043500802632890384
508987.0193519675	0.04391181316344236
518459.3543892913	0.04432245628826776
528107.971193433	0.0447407415515195
537936.1503980698	0.0451668111746941
547947.2336900292	0.04560081002605431
558144.6249454955	0.046042885669885736
568531.7913873753	0.04649318841667078
579112.2647641759	0.046951871374195146
589889.6425508494	0.047419090499606686
600867.5891719692	0.0478950046524423
612049.837247669	0.048379775648641744
623440.1888627863	0.04887356831556722
635042.5168595961	0.049357395477722756
646860.7661546321	0.04981432340716567
658898.9550799957	0.05027975484312458
671161.1767496272	0.05075384803730252
683651.6004510238	0.05123676418649401
696374.4730628222	0.05172866748739298
709334.1204987989	0.05222972519242196
722534.9491787221	0.05274010766659954
735981.4475265755	0.05325998844546608
749678.1874966878	0.053789544294088276
763629.8261282243	0.05432895526716035
777841.1071286482	0.05487840477022529
792316.8624866261	0.05543807962203446
807062.0141149492	0.055954854802886894
822081.575524054	0.056472669077141054
837380.6535266489	0.05700011996314823
852964.4499741016	0.057537386799892905
868838.2635251193	0.058084652263888634
885007.4914473438	0.05864210243128974
901477.6314524917	0.05920992684115967
918254.2835656281	0.05978831855991598
935343.1520292377	0.06037747424697517
952750.0472427299	0.06097759422161895
970480.8877380306	0.0615888825311048
988541.7021919573	0.06221154702004451
1006938.6314760271	0.06281986910268411
1025677.9307444209	0.06339589455870326
1044765.9715608053	0.06398263994647314
1064209.2440647245	0.06458030476574761
1084014.359178331	0.06518909222900499
1104188.0508541602	0.06580920933054243
1124737.1783647507	0.06644086691685609
1145668.7286348727	0.06708427975833149
1166989.8186171474	0.06773966662226716
1188707.6977119034	0.0684072503472587
1210829.7502320393	0.06908725791896564
1233363.4979137746	0.06977992054728946
1256316.6024741214	0.0704854737449871
1279696.8682159416	0.07113489548057203
1303512.2446815087	0.07178754216931346
1327770.829355429	0.07245233472398413
1352480.8704178738	0.07312949918121563
1377650.769549055	0.07381926578421985
1403289.084785873	0.0745218690610738
1429404.533431761	0.07523754790446219
1456005.9950206485	0.07596654565290305
1483102.514336103	0.0767091101734857
1510703.3044866556	0.07746549394614828
1538817.7500383465	0.07823595414952327
1567455.410205595	0.07902075274838143
1596626.022101425	0.07978525776478095
1626339.5040481905	0.08051115713230812
1656605.9589499151	0.08125056561058118
1687435.6777273756	0.08200373460644955
1718839.1428171454	0.08277092020548725
1750827.0317357269	0.08355238325906436
1783410.220710006	0.08434838947303895
1816599.7883753285	0.08515920949810102
1850407.019542302	0.08598511902179526
1884843.4090337954	0.0868263988622589
1919920.6655932867	0.08768333506370246
1955650.715865947	0.0885562189936675
1992045.7084538713	0.08944534744209581
2029118.0180466783	0.09026121119044024
2066880.2496290822	0.09108356658697192
2105345.242766708	0.09192122615736181
2144526.0759716653	0.0927744747148893
2184436.0711494284	0.09364360237325788
2225088.7981283693	0.09452890464523586
2266498.079273693	0.09543068254313485
2308677.994187172	0.09634924268115672
2351642.884494346	0.09728489737964546
2395407.358720879	0.09823796477128051
2439986.29725955	0.09920876890924395
2485394.857429798	0.10019763987740295
2531648.478631358	0.1011581665824677
2578762.8875937983	0.10207273655160726
2626754.1037238385	0.10300432682349224
2675638.4445520453	0.10395325414885256
2725432.531281028	0.10491984117320349
2776153.2944368036	0.10590441654654825
2827817.979625338	0.10690731503512213
2880444.1533962977	0.10792887763521777
2934049.709215787	0.108969451689126
2988652.873550383	0.11002939100323744
3044272.2120643063	0.11110905596833959
3100926.6359319235	0.11220881368215348
3158635.408267819	0.11332903807415204
3217418.1506763715	0.11435381303533092
3277294.849923382	0.11538983438613275
3338285.8647317644	0.11644513627055841
3400411.9327037027	0.11752007750261893
3463694.1773717343	0.11861502357391598
3528154.1153808828	0.11973034677791138
3593813.6638046256	0.12086642633651204
3660695.147596906	0.1220236485290091
3728821.30718283	0.12320240682341657
3798215.306190736	0.12440310201025594
3868900.7393279755	0.12562614233882777
3940901.6404034477	0.12687194365602195
4014242.490499326	0.1280785578933623
4088948.226294856	0.12923068920154057
4165044.248545185	0.13040426186940635
4242556.430717777	0.13159967492431138
4321511.127789762	0.13281733481957483
4401935.1852088785	0.13405765557268143
4483855.948021181	0.13532105890605103
4567301.270168747	0.13660797439043054
4652299.523960189	0.13791883959095058
4738879.609717651	0.13925410021590384
4827070.965603188	0.1406142102682902
4916903.577628021	0.14199963220018205
5008407.989848212	0.14341083706996452
5101615.314749833	0.14469787429410413
5196557.243827657	0.14600294836087668
5293266.058360566	0.1473323100780982
5391774.640387494	0.1486864114430757
5492116.483887789	0.1500657128648642
5594325.706169377	0.15147068332080843
5698437.0594691355	0.15290180051600188
5804485.942768984	0.15435955104571117
5912508.413831869	0.15584443056082303
6022541.201461928	0.15735694393637256
6134621.717992506	0.1588976054432041
6248788.072006888	0.16046693892283048
6365079.081295578	0.16198254008760374
6483534.286054714	0.16343382956864055
6604193.962330305	0.1649121277938653
6727099.135712336	0.16641793740060265
6852291.595284057	0.16795177038034387
6979813.907830667	0.16951414825282912
7109709.432312423	0.17110560224336885
7242022.334607315	0.17272667346346837
7376797.60252773	0.17437791309480863
7514081.061116962	0.1760598825766565
7653919.388230155	0.17777315379675887
7796360.130405221	0.1795183092857903
7941451.71902934	0.1812959424154216
8089243.486805938	0.18291224883690174
8239785.684528512	0.18455615136295597
8393129.498166373	0.18623064719474003
8549327.066268368	0.18793630567887865
8708431.497690724	0.18967370675763556
8870496.889654402	0.19144344116609702
9035578.34613892	0.1932461106330309
9203731.99661823	0.19508232808547957
9375015.01514529	0.19695271785716154
9549485.639791967	0.19885791590075244
9727203.192450536	0.20079857000411538
9908228.099003786	0.20277534001055586
10092621.909870483	0.20467893631280837
10280447.320933098	0.20650697864923884
10471768.194855202	0.20836904116460253
10666649.582795387	0.21026575698021818
10865157.746525371	0.2121977709999
11067360.180959744	0.2141657401292321
11273325.63710487	0.21617033349892248
11483124.14543511	0.21821223269231638
11696827.039703846	0.22029213197714073
11914506.981197748	0.22241073854156287
12136237.983442418	0.22456877273464282
12362095.437367693	0.2267669683112581
