# Frequency (Hz)	Imaginary Part (Ohm/m)
1000.0	17916342.441617846
1018.6101701559753	17853005.963066705
1037.566678745186	17788490.78187264
1056.875971184804	17722774.96217892
1076.5446128423157	17655836.15989875
1096.5792912678098	17587651.615118116
1116.9868184678226	17518198.144357108
1137.7741332214914	17447452.132687308
1158.9483034398106	17375389.52570248
1180.5165285688054	17301985.82133978
1202.4861420374123	17227216.06154881
1224.8646137509306	17151054.823805615
1247.6595526308697	17073476.212468725
1270.8787092020582	17001249.77953358
1294.529978227916	16934203.49156301
1318.6214013947485	16865909.46076499
1343.1611700460153	16796344.46643318
1368.1576279674719	16725484.85571995
1393.619274224142	16653306.535594167
1419.5547660501015	16579784.964649264
1445.9729217920194	16504895.144758947
1472.882723907502	16428611.612577522
1500.2933220192183	16350908.430882096
1528.2140360258693	16271759.179753661
1556.654359271062	16191136.947594006
1585.6239617711371	16109383.876438
1615.132693503091	16040655.628741363
1645.1905877536624	15970648.336660575
1675.807864530767	15899338.196962005
1706.9949340384078	15826700.963429794
1738.7624002162504	15752711.938621892
1771.1210643450886	15677345.965472635
1804.0819287193826	15600577.418739107
1837.6562003881704	15522380.19628824
1871.8552949655793	15442727.710221829
1906.690840512252	15361592.877836386
1942.1746814890264	15278948.112414666
1978.3188827841643	15194765.313845951
2015.1357338155585	15117786.180575276
2052.6377527092523	15046990.893658264
2090.8376905557498	14974878.094405485
2129.748535745521	14901423.263688184
2169.3835183851843	14826601.42607246
2209.756114795903	14750387.141327322
2250.880052095462	14672754.495774765
2292.7693128656488	14593677.093478814
2335.438139906479	14513128.047270639
2378.9010410788933	14431079.969606634
2423.1727942376006	14347504.963256327
2468.2684522556924	14262374.611817056
2514.2033481427966	14176535.640915092
2560.9931002584594	14105891.243116481
2608.6536176225477	14033932.141054275
2657.2011053245064	13960633.867858415
2706.652070033241	13885971.501326244
2757.0233256095826	13809919.655448664
2808.3319988231724	13732452.471778622
2860.5955351757416	13653543.610638982
2913.831704832789	13573166.242166711
2968.0586086656026	13491293.037190486
3023.2946844057765	13407896.157938441
3079.5587129142264	13322947.248573033
3136.8698245668766	13236417.425549775
3195.2475057592133	13158754.96143822
3254.711605531848	13087871.96880349
3315.282342319423	13015669.831614662
3376.9803108250912	12942124.00036712
3439.8264890229243	12867209.468685806
3503.8422452906757	12790900.76482274
3569.0493456752292	12713171.942996407
3635.4699612933177	12633996.574569859
3703.126675869927	12553347.73906473
3772.0424934169973	12471198.01500797
3842.240846055061	12387519.470608247
3913.745601980384	12302283.654258844
3986.581073580439	12216907.873994315
4060.7720257003657	12147946.249386802
4136.343684063274	12077701.237211114
4213.321743847289	12006148.953406224
4291.732378422157	11933265.069424683
4371.602248248501	11859024.803960616
4452.958509942655	11783402.914523834
4535.828825510186	11706373.68885712
4620.241371751313	11627910.93619376
4706.224849841281	11547987.978352437
4793.808495089106	11466577.640666315
4883.02208687788	11383652.242743395
4973.895958790063	11299183.58905488
5066.461008921268	11224780.470195372
5160.7487103859075	11157239.377347166
5256.791122018419	11088441.333268536
5354.620899273607	11018362.945883201
5454.271305329836	10946980.387784367
5555.7762223988775	10874269.388133151
5659.170163246242	10800205.224406213
5764.488282925873	10724762.713989858
5871.766390733255	10647916.205617655
5981.040962380945	10569639.570648752
6092.349152400711	10489906.194183849
6205.7288067765	10408688.966015821
6321.218475812449	10327943.943948222
6438.8574272404185	10263714.850438463
6558.685659571435	10198290.442569524
6680.743915695614	10131648.475337794
6805.073696735206	10063766.28975635
6931.717276155407	9994620.805150675
7060.717714137772	9924188.511310974
7192.118872221193	9852445.46049844
7325.96542821523	9779367.259302774
7462.302891391108	9704929.060348168
7601.17761795533	9629105.553844905
7742.636826811269	9551870.9589838
7886.728615614156	9473199.015170397
8033.501977124735	9405157.499049367
8183.00681586739	9343572.204541592
8335.293965098195	9280840.797223918
8490.415204088747	9216941.947741939
8648.423275731726	9151853.929798327
8809.37190447399	9085554.612765672
8973.31581458352	9018021.454161815
9140.310748756232	8949231.491985168
9310.413487069076	8879161.33690739
9483.681866285926	8807787.164320758
9660.174799522645	8735084.70623755
9839.952296278227	8661029.243038656
10023.075482838643	8587995.812463429
10209.606623060476	8530560.538155789
10399.609139541202	8472056.383620337
10593.1476351837	8412463.45681415
10790.287915161836	8351761.495500003
10991.097009294961	8289929.860357001
11195.643194838794	8226947.5279629575
11403.99601970033	8162793.08364625
11616.22632608502	8097444.714204543
11832.40627458378	8030880.200488114
12052.609368708414	7963076.90984507
12276.910479883603	7894011.788426017
12505.385872903913	7823661.35334552
12738.113231864783	7763860.575588522
12975.171686575868	7709752.614938667
13216.641839466038	7654637.695934327
13462.60579298911	7598497.078909178
13713.147177539455	7541311.675448535
13968.351179887397	7483062.0418990515
14228.30457214352	7423728.372757689
14493.09574126215	7363290.493937627
14762.81471909391	7301727.855908851
15037.553212997384	7239019.526711116
15317.404637020798	7175144.184836813
15602.46414366368	7110080.111981459
15892.828656229764	7046452.207092069
16188.596901781993	6996779.035214907
16489.86944471065	6946181.437156928
16796.74872092653	6894642.209189608
17109.339072690134	6842143.827420107
17427.746784089173	6788668.441832963
17752.08011717636	6734197.870220881
18082.44934877952	6678713.592002609
18418.96680799711	6622196.741925714
18761.746914391195	6564628.103652209
19110.90621689136	6505988.103224786
19466.56343342263	6446256.802411455
19828.83949127071	6385413.8919263575
20197.857568198782	6334515.021271128
20573.743134329114	6288363.809842456
20956.623994804308	6241353.716516191
21346.630333242454	6193468.757354071
21743.8947560008	6144692.650954037
22148.55233726359	6095008.812914354
22560.74066496859	6044400.350194749
22980.599887588487	5992850.0553725995
23408.272761782944	5940340.400792213
23843.904700937208	5886853.532605262
24287.643824604504	5832371.26470024
24739.64100886812	5776875.072519023
25200.049937640895	5723067.291596676
25669.027154919517	5681205.612472904
26146.732118010917	5638564.880377628
26633.327251749808	5595130.597002484
27128.978003724646	5550887.994223126
27633.852900531667	5505822.029077901
28148.123605075813	5459917.378653074
28671.964974937695	5413158.4348728955
29205.55512182745	5365529.299192655
29749.075472144435	5317013.777193017
30302.71082866393	5267595.373073771
30866.649433372742	5217257.284045019
31441.08303147265	5165982.394614119
32026.206936576502	5123707.906450276
32622.220097116733	5085213.4028285295
33229.325163989684	5046002.5099443225
33847.72855945983	5006061.895671563
34477.640547344636	4965377.979771058
35119.275304507275	4923936.929273033
35772.850993678774	4881724.653773793
36438.58983763541	4838726.80064485
37116.71819475767	4794928.750152827
37807.466635993485	4750315.610488652
38511.070023255685	4704872.212704134
39227.76758927723	4658583.105554377
39957.803018952654	4614085.992404208
40701.42453219439	4579472.950924609
41458.88496832911	4544215.754853462
42230.441872066716	4508302.41636421
43016.35758106799	4471720.7245347975
43816.89931514194	4434458.241195852
44632.33926710397	4396502.296701534
45462.95469532399	4357839.985621746
46309.02801799736	4318458.16235414
47170.84690917023	4278343.436654466
48048.704396551344	4237482.169083767
48942.89896114532	4195860.466370787
49853.73463873894	4153464.176688137
50781.5211232767	4118969.8729338516
51726.57387216024	4087372.975120946
52689.21421350677	4055188.0536633446
53669.76945540476	4022404.1653409605
54668.57299720181	3989010.1632785224
55685.96444286408	3954994.693155514
56722.28971644549	3920346.1893455763
57777.90117970507	3885052.8709840896
58853.1577519145	3849102.737962527
59948.42503189408	3812483.566848303
61064.07542232036	3775182.906728673
62200.48825634718	3737188.0749772815
63358.04992658254	3700974.1010949416
64537.15401646702	3672735.216797735
65738.20143409586	3643970.802058743
66961.60054853215	3614671.0766670206
68207.76732865692	3584826.078400232
69477.1254846024	3554425.6596373967
70770.10661181889	3523459.4839085722
72087.15033782135	3491917.022380355
73428.70447166759	3459787.550275958
74795.22515621828	3427060.143228675
76187.17702322999	3393723.67356748
77605.0333513357	3359766.8065334912
79049.2762269642	3325177.996426036
80520.39670825469	3297376.47855164
82018.8949920221	3271726.9805842354
83545.28058382872	3245600.1410952453
85100.07247122246	3218987.0766777266
86683.79930019773	3191878.738603026
88296.99955494082	3164265.90974411
89940.22174092053	3136139.201441638
91614.0245713852	3107489.0503117335
93318.9771573324	3078305.714994306
95055.65920101192	3048579.2728409036
96824.66119303115	3018299.616540894
98626.5846131283	2987456.450684873
100462.04213468132	2958305.990386175
102331.65783302448	2935476.1739250394
104236.06739764012	2912221.4906949317
106175.9183482999	2888534.0338529893
108151.87025522892	2864405.749408653
110164.59496336569	2839828.4334852383
112214.77682079801	2814793.729530512
114303.11291144785	2789293.125475383
116430.31329208757	2763317.9508397086
118597.10123376705	2736859.37378423
120804.21346773289	2709908.3981076675
123052.40043592616	2682455.8601878933
125342.42654613995	2654492.42586622
127675.07043192645	2632270.266419009
130051.12521734099	2611602.9569993485
132471.39878661174	2590551.0254347245
134936.71405883064	2569107.3138415706
137447.90926775365	2547264.531126892
140005.8382468096	2525015.250509214
142611.37071941295	2502351.9069933905
145265.39259467812	2479266.794798436
147968.80626863963	2455752.0647374643
150722.53093107554	2431799.721548886
153527.5028780421	2407401.6211779336
156384.67583022476	2382549.468007593
159295.0212572123	2359256.932426703
162259.5287078087	2340911.3726378484
165279.2061464897	2322224.3988597137
168355.08029612005	2303189.657319872
171488.19698705408	2283800.6760010943
174679.62151272455	2264050.862440826
177930.43899185772	2243933.501489652
181241.75473742394	2223441.7530280845
184614.69463245454	2202568.649640859
188050.40551285836	2181307.0942479093
191550.0555573528	2159649.8576913183
195114.83468466165	2137589.576277301
198745.9549580986	2115118.749272478
202444.65099768018	2097453.4342659987
206212.18039991445	2080881.9769826254
210049.8241653915	2064002.1220594784
213958.88713434213	2046808.1301640032
217940.6984302958	2029294.1551536908
221996.61191199525	2011454.242088333
226128.00663372793	1993282.3252052572
230336.2873142131	1974772.2258569289
234622.88481422624	1955917.650410124
238989.25662310526	1936712.1881060337
243436.8873543108	1917149.3088805443
247967.289250216	1897222.3611439234
252582.00269627848	1878700.6395665258
257282.59674479323	1864016.7961280262
262070.66964838552	1849059.683864591
266947.8494034318	1833824.2171968943
271915.7943036019	1818305.2159021026
276976.1935036891	1802497.403352566
282130.76759394706	1786395.4047216887
287381.2691851069	1769993.7451564379
292729.4835042813	1753286.8479158403
298177.22900196735	1736269.0324748138
303726.3579703311	1718934.5125927485
309378.75717301364	1701277.3943461059
315136.34848664823	1683291.674124427
321001.08955431683	1669299.1217723773
326974.97445117676	1656054.1499766859
333060.03436245886	1642562.687002167
339258.33827409917	1628820.1456060396
345571.9936762143	1614821.8531761528
352003.1472796675	1600563.0501422563
358553.9857459817	1586038.888357675
365226.7364308175	1571244.429450911
372023.6681413066	1556174.6431465268
378947.09190746717	1540824.4055548024
385999.36176797637	1525188.4974295646
393182.87557057705	1509261.6023935692
400500.07578736113	1494580.106952999
407953.45034524484	1482857.2665123455
415545.53347188793	1470916.2620163786
423278.90655735444	1458753.033394911
431156.19903182285	1446363.4450191497
439180.0892596086	1433743.2842955538
447353.3054498463	1420888.2602334963
455678.6265841068	1407794.0019862836
464158.8833612772	1394456.0573650263
472796.9591600391	1380869.8913248337
481595.79101923504	1367030.8844228676
490558.37063650455	1352934.3312476657
499687.7453854889	1338575.4388192592
508987.0193519675	1327517.9829296907
518459.3543892913	1316953.578985777
528107.971193433	1306192.5696868717
537936.1503980698	1295231.2961738636
547947.2336900292	1284066.031495651
558144.6249454955	1272692.9793419428
568531.7913873753	1261108.272752459
579112.2647641759	1249307.972802139
589889.6425508494	1237288.067261852
600867.5891719692	1225044.4692342002
612049.837247669	1212573.015763935
623440.1888627863	1199869.4664224933
635042.5168595961	1188255.941967627
646860.7661546321	1178912.5030988138
658898.9550799957	1169395.181242809
671161.1767496272	1159700.7404076369
683651.6004510238	1149825.8843789531
696374.4730628222	1139767.2555993106
709334.1204987989	1129521.4340265433
722534.9491787221	1119084.935970918
735981.4475265755	1108454.2129106473
749678.1874966878	1097625.6502853413
763629.8261282243	1086595.5662670352
777841.1071286482	1075360.2105083137
792316.8624866261	1063915.7628671583
807062.0141149492	1055191.099125064
822081.575524054	1046775.9361710509
837380.6535266489	1038204.1656025742
852964.4499741016	1029472.8729252804
868838.2635251193	1020579.0894055793
885007.4914473438	1011519.7910612471
901477.6314524917	1002291.8976332332
918254.2835656281	992892.2715383429
935343.1520292377	983317.716802424
952750.0472427299	973564.977973701
970480.8877380306	963630.7390158896
988541.7021919573	953511.6221807033
1006938.6314760271	944337.284620104
1025677.9307444209	936898.2057078064
1044765.9715608053	929320.6842711464
1064209.2440647245	921602.1438711905
1084014.359178331	913739.9601210356
1104188.0508541602	905731.4597934929
1124737.1783647507	897573.9199121604
1145668.7286348727	889264.566825581
1166989.8186171474	880800.5752641755
1188707.6977119034	872179.0673796133
1210829.7502320393	863397.1117663186
1233363.4979137746	854451.7224647581
1256316.6024741214	845339.857946183
1279696.8682159416	838462.8226117081
1303512.2446815087	831765.4072460721
1327770.829355429	824943.3518408765
1352480.8704178738	817994.3368237766
1377650.769549055	810915.9994547913
1403289.084785873	803705.9330229486
1429404.533431761	796361.6860279733
1456005.9950206485	788880.7613467543
1483102.514336103	781260.6153842934
1510703.3044866556	773498.6572088571
1538817.7500383465	765592.2476710331
1567455.410205595	757538.6985063875
1596626.022101425	750297.6377437377
1626339.5040481905	744378.7431393836
1656605.9589499151	738349.6968993064
1687435.6777273756	732208.4490828239
1718839.1428171454	725952.9115995065
1750827.0317357269	719580.9574992069
1783410.220710006	713090.4202488761
1816599.7883753285	706479.0929959115
1850407.019542302	699744.7278178129
1884843.4090337954	692885.0349578578
1919920.6655932867	685897.6820465601
1955650.715865947	678780.293308645
1992045.7084538713	671530.4487552495
2029118.0180466783	666113.3358050665
2066880.2496290822	660785.8334958412
2105345.242766708	655359.1854621345
2144526.0759716653	649831.5465851449
2184436.0711494284	644201.0374080926
2225088.7981283693	638465.7434971912
2266498.079273693	632623.7147907133
2308677.994187172	626672.964935951
2351642.884494346	620611.4706138375
2395407.358720879	614437.1708509886
2439986.29725955	608147.9663189597
2485394.857429798	601741.7186204441
2531648.478631358	596029.842559415
2578762.8875937983	591322.6084886073
2626754.1037238385	586527.771990777
2675638.4445520453	581643.7027698524
2725432.531281028	576668.7401896728
2776153.2944368036	571601.1927093561
2827817.979625338	566439.3373081582
2880444.1533962977	561181.4188996222
2934049.709215787	555825.6497348379
2988652.873550383	550370.2087945807
3044272.2120643063	544813.2411701488
3100926.6359319235	539152.8574326764
3158635.408267819	533387.1329907002
3217418.1506763715	529122.0237399546
3277294.849923382	524885.7260093939
3338285.8647317644	520570.5900572356
3400411.9327037027	516175.1486907625
3463694.1773717343	511697.9074125478
3528154.1153808828	507137.3439123166
3593813.6638046256	502491.90754933894
3660695.147596906	497760.018825197
3728821.30718283	492940.0688467408
3798215.306190736	488030.41877904104
3868900.7393279755	483029.3992881757
3940901.6404034477	477935.3099736319
4014242.490499326	473431.4682466096
4088948.226294856	469688.84840450104
4165044.248545185	465876.57777030085
4242556.430717777	461993.360130918
4321511.127789762	458037.87515051354
4401935.1852088785	454008.7779215739
4483855.948021181	449904.6985076296
4567301.270168747	445724.24147745734
4652299.523960189	441465.98543062416
4738879.609717651	437128.48251419177
4827070.965603188	432710.2579304321
4916903.577628021	428209.80943538225
5008407.989848212	423625.60682806035
5101615.314749833	420268.6087981006
5196557.243827657	416900.7465262917
5293266.058360566	413470.20776454214
5391774.640387494	409975.8260927105
5492116.483887789	406416.4133833754
5594325.706169377	402790.7593978646
5698437.0594691355	399097.63137475675
5804485.942768984	395335.77361073066
5912508.413831869	391503.9070336143
6022541.201461928	387600.728767482
6134621.717992506	383624.9116896682
6248788.072006888	379575.10397952737
6365079.081295578	376024.7754218835
6483534.286054714	373049.61673982773
6604193.962330305	370019.0898484572
6727099.135712336	366932.16433597635
6852291.595284057	363787.7906144494
6979813.907830667	360584.8995629305
7109709.432312423	357322.40216395253
7242022.334607315	353999.1891332454
7376797.60252773	350614.13054257265
7514081.061116962	347166.07543553953
7653919.388230155	343653.8514362569
7796360.130405221	340076.2643507225
7941451.71902934	336432.0977607778
8089243.486805938	333790.4979912287
8239785.684528512	331113.4121096041
8393129.498166373	328386.5052042
8549327.066268368	325608.8500972874
8708431.497690724	322779.5023561999
8870496.889654402	319897.49997222074
9035578.34613892	316961.8630334857
9203731.99661823	313971.59339180443
9375015.01514529	310925.67432327947
9549485.639791967	307823.0701826079
9727203.192450536	304662.7260509519
9908228.099003786	301443.56737725437
10092621.909870483	298645.4353881326
10280447.320933098	296280.6199808303
10471768.194855202	293871.7949564107
10666649.582795387	291418.1412884107
10865157.746525371	288918.82470814534
11067360.180959744	286372.9954210473
11273325.63710487	283779.7878177286
11483124.14543511	281138.3201796624
11696827.039703846	278447.6943793902
11914506.981197748	275706.99557514896
12136237.983442418	272915.29189981415
12362095.437367693	270071.63414405665
12592156.13694151	267185.7246521817
12826498.3052806	265096.7893920348
13065201.621247198	262968.9786912518
13308347.24654076	260801.56907126712
13556017.853293689	258593.8235894572
13808297.652180923	256344.99158856965
14065272.421052363	254054.30844149343
14327029.534098294	251720.99529127666
14593657.991557576	249344.2587863069
14865248.449978571	246923.290810564
15141893.25304352	244457.2682088504
15423686.462966273	241945.35250691042
15710723.892474487	239386.68962633985
16003103.137387017	237181.71799961547
16300923.609797413	235302.16264525772
16604286.571875297	233387.62844593782
16913295.17029647	231437.46443939916
17228054.471313924	229451.0075488667
17548671.49648152	227427.58235759375
17875255.259042352	225366.50087921356
18207916.800994623	223267.06232381536
18546769.230846975	221128.55285966917
18891927.762076646	218950.24537051504
19243509.75230332	216731.3992083355
19601634.743191857	214471.25994152814
19966424.501097932	212194.49425926025
20338003.0584698	210534.24623445602
20716496.75602067	208843.10071140903
21102034.285685964	207120.48268241948
21494746.734379806	205365.80643879683
21894767.628566206	203578.47537171174
