# Frequency (Hz)	Imaginary Part (Ohm/m)
1000.0	21178158.225696906
1018.6101701559753	21106567.312945534
1037.566678745186	21033644.081126224
1056.875971184804	20959363.73555445
1076.5446128423157	20883701.020112325
1096.5792912678098	20806630.208661366
1116.9868184678226	20728125.096295252
1137.7741332214914	20648158.99042988
1158.9483034398106	20566704.701727647
1180.5165285688054	20483734.53485273
1202.4861420374123	20399220.279054403
1224.8646137509306	20313133.198575065
1247.6595526308697	20225444.022879772
1270.8787092020582	20144190.516001984
1294.529978227916	20069169.979654256
1318.6214013947485	19992753.29835991
1343.1611700460153	19914914.489623915
1368.1576279674719	19835627.087412607
1393.619274224142	19754864.133154925
1419.5547660501015	19672598.1665762
1445.9729217920194	19588801.21636141
1472.882723907502	19503444.790644567
1500.2933220192183	19416499.867321223
1528.2140360258693	19327936.884180643
1556.654359271062	19237725.72885428
1585.6239617711371	19146261.120542124
1615.132693503091	19069838.4568323
1645.1905877536624	18991993.554347064
1675.807864530767	18912699.944980808
1706.9949340384078	18831930.668051958
1738.7624002162504	18749658.26113609
1771.1210643450886	18665854.75072837
1804.0819287193826	18580491.642732304
1837.6562003881704	18493539.912771385
1871.8552949655793	18404969.99632053
1906.690840512252	18314751.778653834
1942.1746814890264	18222854.584605183
1978.3188827841643	18129247.168138437
2015.1357338155585	18043756.625958104
2052.6377527092523	17965236.91045849
2090.8376905557498	17885255.92969284
2129.748535745521	17803786.489265885
2169.3835183851843	17720800.888690077
2209.756114795903	17636270.911967058
2250.880052095462	17550167.817993943
2292.7693128656488	17462462.330791038
2335.438139906479	17373124.629547667
2378.9010410788933	17282124.338482812
2423.1727942376006	17189430.516516995
2468.2684522556924	17095011.646751992
2514.2033481427966	16999803.506358545
2560.9931002584594	16921383.81085699
2608.6536176225477	16841504.711478572
2657.2011053245064	16760139.048468817
2706.652070033241	16677259.156625595
2757.0233256095826	16592836.855892666
2808.3319988231724	16506843.441778133
2860.5955351757416	16419249.675594637
2913.831704832789	16330025.77451786
2968.0586086656026	16239141.40146007
3023.2946844057765	16146565.654755156
3079.5587129142264	16052267.05765174
3136.8698245668766	15956213.547610765
3195.2475057592133	15869832.789597645
3254.711605531848	15790840.599758644
3315.282342319423	15710378.351825751
3376.9803108250912	15628418.68776769
3439.8264890229243	15544933.740415586
3503.8422452906757	15459895.123987794
3569.0493456752292	15373273.924438456
3635.4699612933177	15285040.689626388
3703.126675869927	15195165.419301048
3772.0424934169973	15103617.554902151
3842.240846055061	15010365.969169362
3913.745601980384	14915378.955558779
3986.581073580439	14820198.776117839
4060.7720257003657	14742846.954932839
4136.343684063274	14664055.603193715
4213.321743847289	14583797.930991907
4291.732378422157	14502046.649854103
4371.602248248501	14418773.963463858
4452.958509942655	14333951.558210537
4535.828825510186	14247550.593562417
4620.241371751313	14159541.692260556
4706.224849841281	14069894.930330222
4793.808495089106	13978579.826906443
4883.02208687788	13885565.333870122
4973.895958790063	13790819.825291436
5066.461008921268	13706985.954297302
5160.7487103859075	13630573.702776697
5256.791122018419	13552739.40625329
5354.620899273607	13473456.600227607
5454.271305329836	13392698.327691346
5555.7762223988775	13310437.129961688
5659.170163246242	13226645.037345046
5764.488282925873	13141293.559627078
5871.766390733255	13054353.676385714
5981.040962380945	12965795.827123884
6092.349152400711	12875589.901218655
6205.7288067765	12783705.22768325
6321.218475812449	12692281.21010846
6438.8574272404185	12618872.743142458
6558.685659571435	12544098.132115327
6680.743915695614	12467931.952853637
6805.073696735206	12390348.30803576
6931.717276155407	12311320.818386495
7060.717714137772	12230822.613707861
7192.118872221193	12148826.323742904
7325.96542821523	12065304.068869542
7462.302891391108	11980227.450621182
7601.17761795533	11893567.542030916
7742.636826811269	11805294.877796091
7886.728615614156	11715379.44425973
8033.501977124735	11637133.060697058
8183.00681586739	11565949.76008878
8335.293965098195	11493441.72614391
8490.415204088747	11419584.305349655
8648.423275731726	11344352.385387138
8809.37190447399	11267720.386592956
8973.31581458352	11189662.253261827
9140.310748756232	11110151.444787338
9310.413487069076	11029160.926637908
9483.681866285926	10946663.161164694
9660.174799522645	10862630.098238537
9839.952296278227	10777033.165712595
10023.075482838643	10692519.644854488
10209.606623060476	10625341.734255373
10399.609139541202	10556913.631309293
10593.1476351837	10487212.069723938
10790.287915161836	10416213.350217342
10991.097009294961	10343893.332459867
11195.643194838794	10270227.426866239
11403.99601970033	10195190.586234828
11616.22632608502	10118757.297231296
11832.40627458378	10040901.571713831
12052.609368708414	9961596.937896868
12276.910479883603	9880816.431350404
12505.385872903913	9798532.585831834
12738.113231864783	9728107.369108725
12975.171686575868	9664055.906304814
13216.641839466038	9598812.434879381
13462.60579298911	9532354.771349147
13713.147177539455	9464660.319392454
13968.351179887397	9395706.062166234
14228.30457214352	9325468.554480052
14493.09574126215	9253923.914824503
14762.81471909391	9181047.817251202
15037.553212997384	9106815.48310177
15317.404637020798	9031201.672582742
15602.46414366368	8954180.676183812
15892.828656229764	8878756.008925742
16188.596901781993	8819255.169331906
16489.86944471065	8758647.008988816
16796.74872092653	8696910.920468897
17109.339072690134	8634025.91283686
17427.746784089173	8569970.604512531
17752.08011717636	8504723.216000887
18082.44934877952	8438261.56248681
18418.96680799711	8370563.046291995
18761.746914391195	8301604.649191485
19110.90621689136	8231362.924587251
19466.56343342263	8159813.989536075
19828.83949127071	8086933.516629126
20197.857568198782	8025553.869112538
20573.743134329114	7969642.433089519
20956.623994804308	7912690.475728446
21346.630333242454	7854678.632750159
21743.8947560008	7795587.179502996
22148.55233726359	7735396.024256137
22560.74066496859	7674084.701368249
22980.599887588487	7611632.364328929
23408.272761782944	7548017.778670664
23843.904700937208	7483219.314748901
24287.643824604504	7417214.94038771
24739.64100886812	7349982.213388617
25200.049937640895	7284701.475652334
25669.027154919517	7233446.664011388
26146.732118010917	7181237.991604495
26633.327251749808	7128057.706920492
27128.978003724646	7073887.728089579
27633.852900531667	7018709.636735276
28148.123605075813	6962504.67171198
28671.964974937695	6905253.722725999
29205.55512182745	6846937.323837795
29749.075472144435	6787535.6468433915
30302.71082866393	6727028.494532586
30866.649433372742	6665395.293821608
31441.08303147265	6602615.08875815
32026.206936576502	6550543.626703206
32622.220097116733	6502951.759229699
33229.325163989684	6454474.19900448
33847.72855945983	6405094.463134712
34477.640547344636	6354795.761978156
35119.275304507275	6303560.9934344515
35772.850993678774	6251372.7371302415
36438.58983763541	6198213.248496079
37116.71819475767	6144064.4527330175
37807.466635993485	6088907.938667072
38511.070023255685	6032724.952489145
39227.76758927723	5975496.391378572
39957.803018952654	5920409.107397489
40701.42453219439	5877240.786028696
41458.88496832911	5833269.094853886
42230.441872066716	5788479.083024268
43016.35758106799	5742855.521453207
43816.89931514194	5696382.89763819
44632.33926710397	5649045.4103863835
45462.95469532399	5600826.964442062
46309.02801799736	5551711.165014061
47170.84690917023	5501681.312201353
48048.704396551344	5450720.395314928
48942.89896114532	5398811.087093941
49853.73463873894	5345935.737814284
50781.5211232767	5302701.402295091
51726.57387216024	5262989.446991776
52689.21421350677	5222538.4454430435
53669.76945540476	5181334.643872509
54668.57299720181	5139364.032543675
55685.96444286408	5096612.340996461
56722.28971644549	5053065.033195091
57777.90117970507	5008707.30258571
58853.1577519145	4963524.067061955
59948.42503189408	4917499.963836904
61064.07542232036	4870619.344219559
62200.48825634718	4822866.268294114
63358.04992658254	4777298.228627467
64537.15401646702	4741567.591427674
65738.20143409586	4705172.000989809
66961.60054853215	4668099.082420968
68207.76732865692	4630336.230529381
69477.1254846024	4591870.605538518
70770.10661181889	4552689.128721421
72087.15033782135	4512778.477953794
73428.70447166759	4472125.083184346
74795.22515621828	4430715.121820817
76187.17702322999	4388534.514030164
77605.0333513357	4345568.917951245
79049.2762269642	4301803.724818444
80520.39670825469	4266490.384127624
82018.8949920221	4233848.567805665
83545.28058382872	4200599.281727757
85100.07247122246	4166731.220778375
86683.79930019773	4132232.869451872
88296.99955494082	4097092.4979370823
89940.22174092053	4061298.158129053
91614.0245713852	4024837.679566581
93318.9771573324	3987698.665294092
95055.65920101192	3949868.487646567
96824.66119303115	3911334.283955991
98626.5846131283	3872082.952177904
100462.04213468132	3834950.642450309
102331.65783302448	3805755.0210034074
104236.06739764012	3776016.06407357
106175.9183482999	3745723.660095008
108151.87025522892	3714867.5093239667
110164.59496336569	3683437.1203367217
112214.77682079801	3651421.806462355
114303.11291144785	3618810.68214919
116430.31329208757	3585592.6592635796
118597.10123376705	3551756.4433198185
120804.21346773289	3517290.5296399137
123052.40043592616	3482183.1994418446
125342.42654613995	3446422.5158550674
127675.07043192645	3417922.731059983
130051.12521734099	3391384.290259353
132471.39878661174	3364351.9645597506
134936.71405883064	3336816.562679168
137447.90926775365	3308768.7222842746
140005.8382468096	3280198.9068071246
142611.37071941295	3251097.402202616
145265.39259467812	3221454.313645626
147968.80626863963	3191259.562166643
150722.53093107554	3160502.881224817
153527.5028780421	3129173.813217231
156384.67583022476	3097261.705923194
159295.0212572123	3067330.5034740027
162259.5287078087	3043693.2844987614
165279.2061464897	3019616.1728563732
168355.08029612005	2995090.9820694616
171488.19698705408	2970109.3733088933
174679.62151272455	2944662.852558522
177930.43899185772	2918742.7677271096
181241.75473742394	2892340.3057065248
184614.69463245454	2865446.4893752057
188050.40551285836	2838052.1745458106
191550.0555573528	2810148.046856138
195114.83468466165	2781724.6186021063
198745.9549580986	2752772.225511847
202444.65099768018	2729965.186054312
206212.18039991445	2708554.0562069817
210049.8241653915	2686744.461589962
213958.88713434213	2664528.986706088
217940.6984302958	2641900.078054525
221996.61191199525	2618850.0415625195
226128.00663372793	2595371.03996929
230336.2873142131	2571455.090161321
234622.88481422624	2547094.0604579835
238989.25662310526	2522279.667846691
243436.8873543108	2497003.475166589
247967.289250216	2471256.8882398093
252582.00269627848	2447313.0579993934
257282.59674479323	2428297.419765686
262070.66964838552	2408927.897268824
266947.8494034318	2389197.904662458
271915.7943036019	2369100.733536508
276976.1935036891	2348629.5506362524
282130.76759394706	2327777.395538929
287381.2691851069	2306537.178287123
292729.4835042813	2284901.676978116
298177.22900196735	2262863.535308333
303726.3579703311	2240415.2600721577
309378.75717301364	2217549.218614128
315136.34848664823	2194257.636233768
321001.08955431683	2176111.7292352635
326974.97445117676	2158927.5301469774
333060.03436245886	2141423.5301896664
339258.33827409917	2123593.777814739
345571.9936762143	2105432.210714274
352003.1472796675	2086932.653759774
358553.9857459817	2068088.8169025362
365226.7364308175	2048894.2930349964
372023.6681413066	2029342.555812218
378947.09190746717	2009426.9574328773
385999.36176797637	1989140.726378943
393182.87557057705	1968476.965113267
400500.07578736113	1949421.647114143
407953.45034524484	1934189.3737278557
415545.53347188793	1918673.6251419857
423278.90655735444	1902869.1258348394
431156.19903182285	1886770.5021063534
439180.0892596086	1870372.280251005
447353.3054498463	1853668.8846966724
455678.6265841068	1836654.6361088902
464158.8833612772	1819323.7494598164
472796.9591600391	1801670.3320612458
481595.79101923504	1783688.3815610555
490558.37063650455	1765371.7839023196
499687.7453854889	1746714.3112444752
508987.0193519675	1732332.8790676887
518459.3543892913	1718589.1565498048
528107.971193433	1704589.661017288
537936.1503980698	1690329.632490813
547947.2336900292	1675804.22240703
558144.6249454955	1661008.4919700054
568531.7913873753	1645937.4104719623
579112.2647641759	1630585.853582808
589889.6425508494	1614948.6016077877
600867.5891719692	1599020.3377127387
612049.837247669	1582795.6461163166
623440.1888627863	1566269.0102485537
635042.5168595961	1551156.3285017107
646860.7661546321	1538989.1266571474
658898.9550799957	1526595.4911159328
671161.1767496272	1513971.2079084483
683651.6004510238	1501111.9846423722
696374.4730628222	1488013.4490432423
709334.1204987989	1474671.1474678183
722534.9491787221	1461080.543389802
735981.4475265755	1447237.0158573748
749678.1874966878	1433135.8579220064
763629.8261282243	1418772.275038066
777841.1071286482	1404141.3834326067
792316.8624866261	1389238.2084448345
807062.0141149492	1377869.489245713
822081.575524054	1366902.4977705285
837380.6535266489	1355731.4087178933
852964.4499741016	1344352.4237971602
868838.2635251193	1332761.674030849
885007.4914473438	1320955.2184391527
901477.6314524917	1308929.042699956
918254.2835656281	1296679.0577839273
935343.1520292377	1284201.0985642027
952750.0472427299	1271490.9224001989
970480.8877380306	1258544.2076950718
988541.7021919573	1245356.5524263214
1006938.6314760271	1233397.9123692298
1025677.9307444209	1223696.889207202
1044765.9715608053	1213815.328353441
1064209.2440647245	1203749.869970786
1084014.359178331	1193497.0916949317
1104188.0508541602	1183053.5074707922
1124737.1783647507	1172415.5663672034
1145668.7286348727	1161579.651369566
1166989.8186171474	1150542.0781500281
1188707.6977119034	1139299.0938147663
1210829.7502320393	1127846.875627964
1233363.4979137746	1116181.5297120416
1256316.6024741214	1104299.0897236944
1279696.8682159416	1095327.1007216375
1303512.2446815087	1086588.7750084074
1327770.829355429	1077687.8275667755
1352480.8704178738	1068621.2319787056
1377650.769549055	1059385.9055040053
1403289.084785873	1049978.7080321661
1429404.533431761	1040396.4410146849
1456005.9950206485	1030635.8463775284
1483102.514336103	1020693.6054133506
1510703.3044866556	1010566.3376530971
1538817.7500383465	1000250.599716611
1567455.410205595	989742.8841418427
1596626.022101425	980294.0722216056
1626339.5040481905	972568.5305513887
1656605.9589499151	964699.2152361413
1687435.6777273756	956683.4506238673
1718839.1428171454	948518.5112682285
1750827.0317357269	940201.6210018675
1783410.220710006	931729.9519924824
1816599.7883753285	923100.6237813254
1850407.019542302	914310.7023038283
1884843.4090337954	905357.1988919773
1919920.6655932867	896237.0692581385
1955650.715865947	886947.2124599713
1992045.7084538713	877484.469846064
2029118.0180466783	870411.8021475449
2066880.2496290822	863455.8586206534
2105345.242766708	856370.4638011307
2144526.0759716653	849153.2085783958
2184436.0711494284	841801.6390079048
2225088.7981283693	834313.2554767946
2266498.079273693	826685.5118539769
2308677.994187172	818915.814624432
2351642.884494346	811001.5220073864
2395407.358720879	802939.9430580717
2439986.29725955	794728.3367527853
2485394.857429798	786363.9110569035
2531648.478631358	778905.4397961204
2578762.8875937983	772757.7778110495
2626754.1037238385	766495.7067903734
2675638.4445520453	760117.0975624744
2725432.531281028	753619.7813314857
2776153.2944368036	747001.5489398804
2827817.979625338	740260.1501173372
2880444.1533962977	733393.2927156155
2934049.709215787	726398.6419292118
2988652.873550383	719273.8195014914
3044272.2120643063	712016.4029160592
3100926.6359319235	704623.9245730811
3158635.408267819	697093.8709502639
3217418.1506763715	691522.57833453
3277294.849923382	685988.8237221967
3338285.8647317644	680352.0849949255
3400411.9327037027	674610.4456008166
3463694.1773717343	668761.9533206077
3528154.1153808828	662804.619603909
3593813.6638046256	656736.4188930662
3660695.147596906	650555.2879344536
3728821.30718283	644259.1250769463
3798215.306190736	637845.7895573296
3868900.7393279755	631313.1007724261
3940901.6404034477	624658.8375376596
4014242.490499326	618775.2419056131
4088948.226294856	613885.562959382
4165044.248545185	608904.8862559524
4242556.430717777	603831.5183115806
4321511.127789762	598663.7341265002
4401935.1852088785	593399.7765984056
4483855.948021181	588037.8559250202
4567301.270168747	582576.1489955394
4652299.523960189	577012.7987707594
4738879.609717651	571345.9136516588
4827070.965603188	565573.5668362369
4916903.577628021	559693.7956643819
5008407.989848212	553704.6009505392
5101615.314749833	549318.1870511238
5196557.243827657	544917.5476439896
5293266.058360566	540435.0115886928
5391774.640387494	535869.0547746778
5492116.483887789	531218.1247274282
5594325.706169377	526480.6400806161
5698437.0594691355	521654.9900384156
5804485.942768984	516739.533827816
5912508.413831869	511732.60014074406
6022541.201461928	506632.48656579485
6134621.717992506	501437.4590094016
6248788.072006888	496145.75110621884
6365079.081295578	491506.5005797062
6483534.286054714	487618.58368394885
6604193.962330305	483658.31199320825
6727099.135712336	479624.3389724396
6852291.595284057	475515.29302734986
6979813.907830667	471329.7770380427
7109709.432312423	467066.36788398505
7242022.334607315	462723.61596012465
7376797.60252773	458300.0446840168
7514081.061116962	453794.1499937632
7653919.388230155	449204.3998366187
7796360.130405221	444529.2336480774
7941451.71902934	439767.06182125874
8089243.486805938	436314.7545501217
8239785.684528512	432816.0653939532
8393129.498166373	429252.26503726526
8549327.066268368	425622.141749538
8708431.497690724	421924.46124973835
8870496.889654402	418157.9662866553
9035578.34613892	414321.3762114176
9203731.99661823	410413.38654206065
9375015.01514529	406432.6685199895
9549485.639791967	402377.8686581847
9727203.192450536	398247.6082810034
9908228.099003786	394040.4830554143
10092621.909870483	390383.4968357849
10280447.320933098	387292.70848134236
10471768.194855202	384144.4000297074
10666649.582795387	380937.50102208415
10865157.746525371	377670.92107825587
11067360.180959744	374343.5495258447
11273325.63710487	370954.2550226712
11483124.14543511	367501.8851720849
11696827.039703846	363985.26613113796
11914506.981197748	360403.20221146516
12136237.983442418	356754.4754727374
12362095.437367693	353037.84530854947
12592156.13694151	349265.99077369453
12826498.3052806	346535.62904905446
13065201.621247198	343754.4548281314
13308347.24654076	340921.52248172316
13556017.853293689	338035.8687823083
13808297.652180923	335096.51257653604
14065272.421052363	332102.45445162547
14327029.534098294	329052.6763955534
14593657.991557576	325946.14145091944
14865248.449978571	322781.7933623707
15141893.25304352	319558.5562174614
15423686.462966273	316275.33408083225
15710723.892474487	312931.0106215806
16003103.137387017	310048.9279383545
16300923.609797413	307592.1326856446
16604286.571875297	305089.6160552434
16913295.17029647	302540.5271645322
17228054.471313924	299943.9992958222
17548671.49648152	297299.1496016605
17875255.259042352	294605.0788046538
18207916.800994623	291860.8708917025
18546769.230846975	289065.5928025478
18891927.762076646	286218.2941125206
19243509.75230332	283318.00670938694
19601634.743191857	280363.74446417997
19966424.501097932	277387.7467923483
20338003.0584698	275217.5364258819
20716496.75602067	273006.9380752214
21102034.285685964	270755.20011310827
21494746.734379806	268461.5569243738
