# Frequency (Hz)	Imaginary Part (Ohm/m)
1000.0	55372561.28797905
1018.6101701559753	55194217.832248926
1037.566678745186	55012555.37446145
1056.875971184804	54827512.14742362
1076.5446128423157	54639025.23444437
1096.5792912678098	54447030.54794242
1116.9868184678226	54251462.807655625
1137.7741332214914	54052255.51844509
1158.9483034398106	53849340.947686024
1180.5165285688054	53642650.102237985
1202.4861420374123	53432112.70498649
1224.8646137509306	53217657.17094796
1247.6595526308697	52999210.582930066
1270.8787092020582	52795079.28041752
1294.529978227916	52604794.98643171
1318.6214013947485	52410969.46935681
1343.1611700460153	52213536.8264286
1368.1576279674719	52012429.92842113
1393.619274224142	51807580.39682222
1419.5547660501015	51598918.580583856
1445.9729217920194	51386373.53244026
1472.882723907502	51169872.98478491
1500.2933220192183	50949343.325098805
1528.2140360258693	50724709.57092152
1556.654359271062	50495895.34435622
1585.6239617711371	50263828.89131862
1615.132693503091	50067043.2108734
1645.1905877536624	49866595.31543088
1675.807864530767	49662417.05054674
1706.9949340384078	49454438.99341096
1738.7624002162504	49242590.429243185
1771.1210643450886	49026799.327248916
1804.0819287193826	48806992.31612842
1837.6562003881704	48583094.6591295
1871.8552949655793	48355030.22863628
1906.690840512252	48122721.48028508
1942.1746814890264	47886089.4265983
1978.3188827841643	47645053.610128105
2015.1357338155585	47423607.32570661
2052.6377527092523	47218947.64186821
2090.8376905557498	47010479.2064895
2129.748535745521	46798131.13805624
2169.3835183851843	46581831.235937156
2209.756114795903	46361505.9558349
2250.880052095462	46137080.38478029
2292.7693128656488	45908478.215661
2335.438139906479	45675621.721276365
2378.9010410788933	45438431.72790933
2423.1727942376006	45196827.5884064
2468.2684522556924	44950727.15475697
2514.2033481427966	44702474.31267477
2560.9931002584594	44496152.89869643
2608.6536176225477	44285991.80809713
2657.2011053245064	44071919.58384161
2706.652070033241	43853863.439067036
2757.0233256095826	43631749.232334636
2808.3319988231724	43405501.44242089
2860.5955351757416	43175043.14263945
2913.831704832789	42940295.9746852
2968.0586086656026	42701180.12199172
3023.2946844057765	42457614.28259261
3079.5587129142264	42209515.641478084
3136.8698245668766	41956799.842436954
3195.2475057592133	41728750.81698256
3254.711605531848	41519512.5201381
3315.282342319423	41306380.26298624
3376.9803108250912	41089281.57826302
3439.8264890229243	40868142.65007649
3503.8422452906757	40642888.288808286
3569.0493456752292	40413441.90554851
3635.4699612933177	40179725.48605461
3703.126675869927	39941659.564225666
3772.0424934169973	39699163.19508315
3842.240846055061	39452153.92724867
3913.745601980384	39200547.77490972
3986.581073580439	38948362.25962444
4060.7720257003657	38742557.43209506
4136.343684063274	38532922.54170645
4213.321743847289	38319386.31033706
4291.732378422157	38101876.13336745
4371.602248248501	37880318.05499376
4452.958509942655	37654636.74308211
4535.828825510186	37424755.46355476
4620.241371751313	37190596.05429973
4706.224849841281	36952078.89859484
4793.808495089106	36709122.89803717
4883.02208687788	36461645.4449687
4973.895958790063	36209562.394388855
5066.461008921268	35986225.073341444
5160.7487103859075	35782425.870278955
5256.791122018419	35574833.929369815
5354.620899273607	35363378.667117335
5454.271305329836	35147988.18645396
5555.7762223988775	34928589.25229548
5659.170163246242	34705107.266640276
5764.488282925873	34477466.24320523
5871.766390733255	34245588.781589545
5981.040962380945	34009396.04095787
6092.349152400711	33768807.71323345
6205.7288067765	33523741.995792538
6321.218475812449	33279890.35600628
6438.8574272404185	33083955.682411365
6558.685659571435	32884374.63120139
6680.743915695614	32681079.3426685
6805.073696735206	32474000.694224115
6931.717276155407	32263068.276896495
7060.717714137772	32048210.371391006
7192.118872221193	31829353.923704695
7325.96542821523	31606424.520287216
7462.302891391108	31379346.362739373
7601.17761795533	31148042.24204084
7742.636826811269	30912433.51229835
7886.728615614156	30672440.064005096
8033.501977124735	30463660.78683959
8183.00681586739	30273778.471112363
8335.293965098195	30080362.413179822
8490.415204088747	29883346.849498272
8648.423275731726	29682664.792653225
8809.37190447399	29478248.00858305
8973.31581458352	29270026.99337859
9140.310748756232	29057930.949651122
9310.413487069076	28841887.762460478
9483.681866285926	28621823.974795166
9660.174799522645	28397664.76259625
9839.952296278227	28169333.90931628
10023.075482838643	27943929.07614656
10209.606623060476	27765022.245020945
10399.609139541202	27582785.92732603
10593.1476351837	27397158.160750207
10790.287915161836	27208075.829852737
10991.097009294961	27015474.64460378
11195.643194838794	26819289.118525077
11403.99601970033	26619452.546423927
11616.22632608502	26415896.981712587
11832.40627458378	26208553.21330578
12052.609368708414	25997350.74208813
12276.910479883603	25782217.756943747
12505.385872903913	25563081.110339686
12738.113231864783	25375779.410967197
12975.171686575868	25205602.237289775
13216.641839466038	25032258.037453562
13462.60579298911	24855687.872562826
13713.147177539455	24675831.706859026
13968.351179887397	24492628.387307875
14228.30457214352	24306015.622806735
14493.09574126215	24115929.963004958
14762.81471909391	23922306.77673003
15037.553212997384	23725080.23001241
15317.404637020798	23524183.2637011
15602.46414366368	23319547.570662912
15892.828656229764	23119220.046675842
16188.596901781993	22961584.17560875
16489.86944471065	22801014.674158428
16796.74872092653	22637456.946964256
17109.339072690134	22470855.382636674
17427.746784089173	22301153.334848702
17752.08011717636	22128293.103075568
18082.44934877952	21952215.91297594
18418.96680799711	21772861.896407988
18761.746914391195	21590170.07107354
19110.90621689136	21404078.319783513
19466.56343342263	21214523.36933733
19828.83949127071	21021440.769009463
20197.857568198782	20859129.240010966
20573.743134329114	20711465.499104343
20956.623994804308	20561053.71085357
21346.630333242454	20407842.73362997
21743.8947560008	20251780.474050496
22148.55233726359	20092813.86926532
22560.74066496859	19930888.868915983
22980.599887588487	19765950.416757625
23408.272761782944	19597942.43193933
23843.904700937208	19426807.789936014
24287.643824604504	19252488.30312543
24739.64100886812	19074924.701003805
25200.049937640895	18902591.789260246
25669.027154919517	18767662.056301113
26146.732118010917	18630221.25805251
26633.327251749808	18490222.663162142
27128.978003724646	18347618.67059926
27633.852900531667	18202360.793469854
28148.123605075813	18054399.642530568
28671.964974937695	17903684.909395844
29205.55512182745	17750165.34943247
29749.075472144435	17593788.764335886
30302.71082866393	17434501.98438228
30866.649433372742	17272250.850350104
31441.08303147265	17106980.19510561
32026.206936576502	16970169.768303983
32622.220097116733	16845280.48794225
33229.325163989684	16718066.996822355
33847.72855945983	16588486.040986557
34477.640547344636	16456493.561513694
35119.275304507275	16322044.679538526
35772.850993678774	16185093.680992512
36438.58983763541	16045594.001060555
37116.71819475767	15903498.208348326
37807.466635993485	15758757.988755295
38511.070023255685	15611324.129047222
39227.76758927723	15461146.500123216
39957.803018952654	15316655.711412176
40701.42453219439	15203717.149810314
41458.88496832911	15088676.782359878
42230.441872066716	14971495.494096385
43016.35758106799	14852133.442119198
43816.89931514194	14730550.042044565
44632.33926710397	14606703.954206396
45462.95469532399	14480553.06960041
46309.02801799736	14352054.495566579
47170.84690917023	14221164.54120516
48048.704396551344	14087838.702521386
48942.89896114532	13952031.647293521
49853.73463873894	13813697.199659484
50781.5211232767	13700790.035346687
51726.57387216024	13597185.17197289
52689.21421350677	13491652.204462731
53669.76945540476	13384155.250470145
54668.57299720181	13274657.75987251
55685.96444286408	13163122.502343196
56722.28971644549	13049511.554692864
57777.90117970507	12933786.287975188
58853.1577519145	12815907.354352549
59948.42503189408	12695834.673717389
61064.07542232036	12573527.420064526
62200.48825634718	12448944.007609857
63358.04992658254	12330113.688342642
64537.15401646702	12237131.856108773
65738.20143409586	12142419.61615562
66961.60054853215	12045944.765301086
68207.76732865692	11947674.501056362
69477.1254846024	11847575.410472784
70770.10661181889	11745613.458780985
72087.15033782135	11641753.977818767
73428.70447166759	11535961.65424353
74795.22515621828	11428200.517525354
76187.17702322999	11318433.92771666
77605.0333513357	11206624.562994188
79049.2762269642	11092734.406969197
80520.39670825469	11000976.849886466
82018.8949920221	10916223.671929803
83545.28058382872	10829893.222910115
85100.07247122246	10741956.149544531
86683.79930019773	10652382.552280594
88296.99955494082	10561141.975130092
89940.22174092053	10468203.39531368
91614.0245713852	10373535.21271284
93318.9771573324	10277105.239125438
95055.65920101192	10178880.687321443
96824.66119303115	10078828.15989488
98626.5846131283	9976913.637908362
100462.04213468132	9880537.654394226
102331.65783302448	9804880.410405941
104236.06739764012	9727815.172233501
106175.9183482999	9649315.73686556
108151.87025522892	9569355.413648264
110164.59496336569	9487907.015210178
112214.77682079801	9404942.848218229
114303.11291144785	9320434.703961704
116430.31329208757	9234353.848761005
118597.10123376705	9146671.01419784
120804.21346773289	9057356.387163706
123052.40043592616	8966379.599723045
125342.42654613995	8873709.718787873
127675.07043192645	8799941.999722375
130051.12521734099	8731285.636742288
132471.39878661174	8661351.567164859
134936.71405883064	8590116.01265289
137447.90926775365	8517554.752350304
140005.8382468096	8443643.114646751
142611.37071941295	8368355.968789023
145265.39259467812	8291667.71633633
147968.80626863963	8213552.282456528
150722.53093107554	8133983.1070604175
153527.5028780421	8052933.135771015
156384.67583022476	7970374.810724769
159295.0212572123	7892964.718394569
162259.5287078087	7831900.5334204165
165279.2061464897	7769699.933573448
168355.08029612005	7706341.769979537
171488.19698705408	7641804.500180362
174679.62151272455	7576066.18080883
177930.43899185772	7509104.460128023
181241.75473742394	7440896.570431403
184614.69463245454	7371419.320301564
188050.40551285836	7300649.086724824
191550.0555573528	7228561.807059251
195114.83468466165	7155132.9708530195
198745.9549580986	7080337.611510628
202444.65099768018	7021468.864423449
206212.18039991445	6966221.066381625
210049.8241653915	6909945.097417506
213958.88713434213	6852621.82309527
217940.6984302958	6794231.752883995
221996.61191199525	6734755.033530682
226128.00663372793	6674171.442309871
230336.2873142131	6612460.380147787
234622.88481422624	6549600.86461836
238989.25662310526	6485571.522809003
243436.8873543108	6420350.584053612
247967.289250216	6353915.872530235
252582.00269627848	6292147.159133797
257282.59674479323	6243128.72852881
262070.66964838552	6193198.056589481
266947.8494034318	6142338.166349369
271915.7943036019	6090531.764897763
276976.1935036891	6037761.23749998
282130.76759394706	5984008.641608104
287381.2691851069	5929255.700760349
292729.4835042813	5873483.798366888
298177.22900196735	5816673.971379952
303726.3579703311	5758806.903846264
309378.75717301364	5699862.920339344
315136.34848664823	5639821.979269684
321001.08955431683	5593074.171196338
326974.97445117676	5548812.651289519
333060.03436245886	5503727.416965877
339258.33827409917	5457803.13875995
345571.9936762143	5411024.201922314
352003.1472796675	5363374.701110425
358553.9857459817	5314838.43498057
365226.7364308175	5265398.900679306
372023.6681413066	5215039.288232264
378947.09190746717	5163742.474828589
385999.36176797637	5111491.018999022
393182.87557057705	5058267.15468556
400500.07578736113	5009194.514809752
407953.45034524484	4969986.568788204
415545.53347188793	4930048.956219726
423278.90655735444	4889368.097885733
431156.19903182285	4847930.161856045
439180.0892596086	4805721.058785936
447353.3054498463	4762726.43712556
455678.6265841068	4718931.67824029
464158.8833612772	4674321.891440235
472796.9591600391	4628881.908917198
481595.79101923504	4582596.280587527
490558.37063650455	4535449.268838868
499687.7453854889	4487424.843179212
508987.0193519675	4450422.681780172
518459.3543892913	4415065.3580486905
528107.971193433	4379050.028506309
537936.1503980698	4342364.447552921
547947.2336900292	4304996.141695715
558144.6249454955	4266932.405308074
568531.7913873753	4228160.2963094795
579112.2647641759	4188666.6317651183
589889.6425508494	4148437.9834035044
600867.5891719692	4107460.673050731
612049.837247669	4065720.7679797676
623440.1888627863	4023204.0761731304
635042.5168595961	3984329.6829171195
646860.7661546321	3953041.8464622325
658898.9550799957	3921171.7380471034
671161.1767496272	3888708.5214914884
683651.6004510238	3855641.158951956
696374.4730628222	3821958.4071689555
709334.1204987989	3787648.813643952
722534.9491787221	3752700.712745463
735981.4475265755	3717102.2217426323
749678.1874966878	3680841.236764935
763629.8261282243	3643905.428686783
777841.1071286482	3606282.2389354496
792316.8624866261	3567958.8752210275
807062.0141149492	3538732.799802978
822081.575524054	3510541.283751891
837380.6535266489	3481825.1187901413
852964.4499741016	3452574.5411122264
868838.2635251193	3422779.605206561
885007.4914473438	3392430.180473909
901477.6314524917	3361515.9477828457
918254.2835656281	3330026.395961161
935343.1520292377	3297950.8182219383
952750.0472427299	3265278.308523135
970480.8877380306	3231997.7578594172
988541.7021919573	3198097.8504849635
1006938.6314760271	3167359.863566002
1025677.9307444209	3142429.748693078
1044765.9715608053	3117035.6801403565
1064209.2440647245	3091169.023650921
1084014.359178331	3064820.98428285
1104188.0508541602	3037982.603418863
1124737.1783647507	3010644.7557202866
1145668.7286348727	2982798.1460243375
1166989.8186171474	2954433.306183684
1188707.6977119034	2925540.5918471483
1210829.7502320393	2896110.1791805425
1233363.4979137746	2866132.0615264494
1256316.6024741214	2835596.046001855
1279696.8682159416	2812543.9975324804
1303512.2446815087	2790093.0958276675
1327770.829355429	2767224.379021972
1352480.8704178738	2743930.071505274
1377650.769549055	2720202.252962022
1403289.084785873	2696032.855678252
1429404.533431761	2671413.6617984646
1456005.9950206485	2646336.3005314716
1483102.514336103	2620792.2453042357
1510703.3044866556	2594772.8108627456
1538817.7500383465	2568269.1503189397
1567455.410205595	2541272.2521426575
1596626.022101425	2516997.3460462056
1626339.5040481905	2497152.102994714
1656605.9589499151	2476937.536593244
1687435.6777273756	2456346.7736714166
1718839.1428171454	2435372.8131479723
1750827.0317357269	2414008.52365034
1783410.220710006	2392246.641089899
1816599.7883753285	2370079.7661920898
1850407.019542302	2347500.3619806087
1884843.4090337954	2324500.751214731
1919920.6655932867	2301073.113778977
1955650.715865947	2277209.4840241964
1992045.7084538713	2252901.748059134
2029118.0180466783	2234736.026269377
2066880.2496290822	2216870.4239202645
2105345.242766708	2198672.3396714944
2144526.0759716653	2180135.5859783455
2184436.0711494284	2161253.8601448233
2225088.7981283693	2142020.742180703
2266498.079273693	2122429.6926186406
2308677.994187172	2102474.050290692
2351642.884494346	2082147.030063453
2395407.358720879	2061441.720531016
2439986.29725955	2040351.0816650512
2485394.857429798	2018867.9424210922
2531648.478631358	1999712.441382404
2578762.8875937983	1983924.708813124
2626754.1037238385	1967843.1638543494
2675638.4445520453	1951462.338607522
2725432.531281028	1934776.6634155565
2776153.2944368036	1917780.4649690997
2827817.979625338	1900467.9643775527
2880444.1533962977	1882833.2752041677
2934049.709215787	1864870.4014646213
2988652.873550383	1846573.2355882903
3044272.2120643063	1827935.5563416271
3100926.6359319235	1808951.026712875
3158635.408267819	1789613.1917573973
3217418.1506763715	1775306.8780936315
3277294.849923382	1761097.0728426187
3338285.8647317644	1746622.8206979996
3400411.9327037027	1731879.2002580918
3463694.1773717343	1716861.1985330787
3528154.1153808828	1701563.7092405627
3593813.6638046256	1685981.5310693532
3660695.147596906	1670109.3659109753
3728821.30718283	1653941.8170582596
3798215.306190736	1637473.3873703864
3868900.7393279755	1620698.477403822
3940901.6404034477	1603611.3835084285
4014242.490499326	1588503.669241152
4088948.226294856	1575948.7106297861
4165044.248545185	1563160.102102359
4242556.430717777	1550133.4953941796
4321511.127789762	1536864.461318606
4401935.1852088785	1523348.4882610794
4483855.948021181	1509580.9806451313
4567301.270168747	1495557.2573698238
4652299.523960189	1481272.550218144
4738879.609717651	1466722.002235743
4827070.965603188	1451900.6660795256
4916903.577628021	1436803.5023355046
5008407.989848212	1421425.377805332
5101615.314749833	1410163.2808381899
5196557.243827657	1398864.6958105343
5293266.058360566	1387355.842192991
5391774.640387494	1375632.8068513274
5492116.483887789	1363691.603827208
5594325.706169377	1351528.1729829444
5698437.0594691355	1339138.378620989
5804485.942768984	1326518.0080777581
5912508.413831869	1313662.7702912893
6022541.201461928	1300568.2943422159
6134621.717992506	1287230.127967628
6248788.072006888	1273643.7360472407
6365079.081295578	1261732.7502515914
6483534.286054714	1251751.0649638183
6604193.962330305	1241583.618814394
6727099.135712336	1231226.9547620786
6852291.595284057	1220677.5514295013
6979813.907830667	1209931.8219058595
7109709.432312423	1198986.1125273348
7242022.334607315	1187836.7016347954
7376797.60252773	1176479.7983084084
7514081.061116962	1164911.541078672
7653919.388230155	1153127.9966134813
7796360.130405221	1141125.1583807555
7941451.71902934	1128898.945286161
8089243.486805938	1120035.9707409823
8239785.684528512	1111053.9279507627
8393129.498166373	1101904.7278158683
8549327.066268368	1092585.259509674
8708431.497690724	1083092.3543125363
8870496.889654402	1073422.7845344066
9035578.34613892	1063573.2624173702
9203731.99661823	1053540.4390177801
9375015.01514529	1043320.90306758
9549485.639791967	1032911.1798144312
9727203.192450536	1022307.7298402649
9908228.099003786	1011506.9478578392
10092621.909870483	1002118.6394393382
10280447.320933098	994184.0352990978
10471768.194855202	986101.7668256873
10666649.582795387	977869.0859607401
10865157.746525371	969483.1935040564
11067360.180959744	960941.2381618433
11273325.63710487	952240.3155772476
11483124.14543511	943377.4673428388
11696827.039703846	934349.6799947208
11914506.981197748	925153.8839879227
12136237.983442418	915786.9526527171
12362095.437367693	906245.7011315252
12592156.13694151	896562.6810317714
12826498.3052806	889553.535164043
13065201.621247198	882413.9478990679
13308347.24654076	875141.4917002473
13556017.853293689	867733.6938541157
13808297.652180923	860188.0356295863
14065272.421052363	852501.9514215599
14327029.534098294	844672.8278785888
14593657.991557576	836698.00301431
14865248.449978571	828574.7653023435
15141893.25304352	820300.3527543403
15423686.462966273	811871.9519808779
15710723.892474487	803286.6972348785
16003103.137387017	795888.1341065761
16300923.609797413	789581.3945907231
16604286.571875297	783157.2855793507
16913295.17029647	776613.6228061763
17228054.471313924	769948.1813553494
17548671.49648152	763158.6949049575
17875255.259042352	756242.8549564529
18207916.800994623	749198.310049735
18546769.230846975	742022.6649636318
18891927.762076646	734713.4799014971
19243509.75230332	727268.2696616538
19601634.743191857	719684.502792401
19966424.501097932	712044.9432720098
20338003.0584698	706473.9779374558
20716496.75602067	700799.3359900921
21102034.285685964	695019.0879905134
21494746.734379806	689131.2685921193
21894767.628566206	683133.8758728737
