Frequency [GHz]	Zx real [Ohm/m]	Zy real [Ohm/m]
1.000000000000000166e-10	5.630560388474767024e+03	8.838354974150634007e+03
1.032794731918951654e-10	5.749021497699875908e+03	9.043594897013181253e+03
1.066664958279539403e-10	5.871367507244845001e+03	9.255565608125070867e+03
1.101645949633656381e-10	5.997725821374194311e+03	9.474487841882544672e+03
1.137774133221491146e-10	6.128228022541145947e+03	9.700589571607193648e+03
1.175087130904807540e-10	6.263010008410201408e+03	9.934106246944575105e+03
1.213623798344240958e-10	6.402212133373337565e+03	1.017528103904825002e+04
1.253424265461399975e-10	6.545979354707186758e+03	1.042436509380457210e+04
1.294529978227915867e-10	6.694461383523413133e+03	1.068161779336191466e+04
1.336983741824946476e-10	6.847812840669448633e+03	1.094730702623666548e+04
1.380829765218092491e-10	7.006193417741968915e+03	1.122170946627729609e+04
1.426113707194128486e-10	7.169768043380751806e+03	1.150511086077696564e+04
1.472882723907502473e-10	7.338707055016101549e+03	1.179780632803471053e+04
1.521185517986104510e-10	7.513186376248686429e+03	1.210010066467506476e+04
1.571072389247450498e-10	7.693387700046493592e+03	1.241230866304615665e+04
1.622595287078087593e-10	7.879498677949689409e+03	1.273475543902677964e+04
1.675807864530767868e-10	8.071713115480395572e+03	1.306777677058381960e+04
1.730765534195724819e-10	8.270231173960870365e+03	1.341171944743256245e+04
1.787525525904235329e-10	8.475259578950288414e+03	1.376694163216404741e+04
1.846146946324547531e-10	8.687011835517099826e+03	1.413381323321546552e+04
1.906690840512252406e-10	8.905708450571255526e+03	1.451271629007204137e+04
1.969220255479172543e-10	9.131577162487694295e+03	1.490404537110150159e+04
2.033800305846981002e-10	9.364853178260307686e+03	1.530820798443541025e+04
2.100498241653915480e-10	9.605779418433312458e+03	1.572562500232527236e+04
2.169383518385184289e-10	9.854606770065025557e+03	1.615673109941523217e+04
2.240527869300018610e-10	1.011159434798760412e+04	1.660197520538789104e+04
2.314005380130653023e-10	1.037700976463465668e+04	1.706182097245441400e+04
2.389892566231049743e-10	1.065112940871780665e+04	1.753674725817595026e+04
2.468268452255692806e-10	1.093423873304238077e+04	1.802724862411898357e+04
2.549214654451423314e-10	1.122663255176193343e+04	1.853383585086399762e+04
2.632815465648021228e-10	1.152861534738115552e+04	1.905703646990368725e+04
2.719157943036017723e-10	1.184050158782684230e+04	1.959739531298459769e+04
2.808331998823172083e-10	1.216261605391715784e+04	2.015547507946439146e+04
2.900430493863991314e-10	1.249529417757012015e+04	2.073185692227528125e+04
2.995549334359813486e-10	1.283888239110357790e+04	2.132714105310410741e+04
3.093787571730138678e-10	1.319373848799038569e+04	2.194194736741907400e+04
3.195247505759212065e-10	1.356023199544439012e+04	2.257691608999406890e+04
3.300034791125284578e-10	1.393874455922539164e+04	2.323270844160283377e+04
3.408258547423451742e-10	1.432967034106354731e+04	2.391000732757710648e+04
3.520031472796679687e-10	1.473341642911729468e+04	2.460951804894591623e+04
3.635469961293320139e-10	1.515040326189208645e+04	2.533196903689644387e+04
3.754694224073336536e-10	1.558106506606146104e+04	2.607811261132139407e+04
3.877828414589456106e-10	1.602585030864629516e+04	2.684872576424264480e+04
4.005000757873611052e-10	1.648522216402320919e+04	2.764461096892717978e+04
4.136343684063274911e-10	1.695965899624832309e+04	2.846659701553760169e+04
4.271993966306778827e-10	1.744965485719873686e+04	2.931553987418773249e+04
4.412092863191189219e-10	1.795572000105041298e+04	3.019232358630180534e+04
4.556786265841064474e-10	1.847838141562823512e+04	3.109786118520555465e+04
4.706224849841281415e-10	1.901818337118150521e+04	3.203309564690787738e+04
4.860564232142136024e-10	1.957568798715648154e+04	3.299900087206310855e+04
5.019965133110081441e-10	2.015147581755593274e+04	3.399658270013641595e+04
5.184593543892912175e-10	2.074614645549553097e+04	3.502687995682860492e+04
5.354620899273606527e-10	2.136031915758642572e+04	3.609096553585083893e+04
5.530224256192902378e-10	2.199463348879433397e+04	3.718994751617594738e+04
5.711586478126431938e-10	2.264974998844655056e+04	3.832497031592956046e+04
5.898896425508497150e-10	2.332635085808054646e+04	3.949721588412299025e+04
6.092349152400710261e-10	2.402514067185031672e+04	4.070790493146850349e+04
6.292146109610343618e-10	2.474684711023035925e+04	4.195829820155892958e+04
6.498495354469890483e-10	2.549222171778126358e+04	4.324969778373523150e+04
6.711611767496282870e-10	2.626204068576598729e+04	4.458344846900925040e+04
6.931717276155404727e-10	2.705710566043189465e+04	4.596093915045354515e+04
7.159041085964887260e-10	2.787824457780012017e+04	4.738360426951666159e+04
7.393819919175865964e-10	2.872631252583165406e+04	4.885292530976990383e+04
7.636298261282244400e-10	2.960219263486794080e+04	5.037043233964112733e+04
7.886728615614152294e-10	3.050679699727320622e+04	5.193770560574208503e+04
8.145371766280743462e-10	3.144106761723627642e+04	5.355637717844857980e+04
8.412497049736117954e-10	3.240597739172078582e+04	5.522813265144680190e+04
8.688382635251186617e-10	3.340253112358548969e+04	5.695471289701605565e+04
8.973315814583522479e-10	3.443176656792951690e+04	5.873791587887529022e+04
9.267593301146878953e-10	3.549475551275230828e+04	6.057959852448167658e+04
9.571521538991863169e-10	3.659260489505336591e+04	6.248167865873052506e+04
9.885417021919573871e-10	3.772645795353436552e+04	6.444613700107042678e+04
1.020960662306046580e-09	3.855518213275626476e+04	6.599217130234267097e+04
1.054442793526168950e-09	3.921781924909973895e+04	6.731629882415239990e+04
1.089022962263730067e-09	3.990218737203323690e+04	6.868385075306637737e+04
1.124737178364752061e-09	4.060899916409221623e+04	7.009625118087434385e+04
1.161622632608501755e-09	4.133899065938891727e+04	7.155497090207447764e+04
1.199717735435884489e-09	4.209292203007698845e+04	7.306152894547623873e+04
1.239062156947916503e-09	4.287157837795207888e+04	7.461749415603175294e+04
1.279696868215940940e-09	4.367577055201269832e+04	7.622448682854260551e+04
1.321664183946605026e-09	4.450633599283297372e+04	7.788418039494419645e+04
1.365007806546013663e-09	4.536413960462609248e+04	7.959830316692350607e+04
1.409772871628966933e-09	4.625007465590706852e+04	8.136864013568610244e+04
1.456005995020649598e-09	4.716506370969241834e+04	8.319703483074542601e+04
1.503755321299737753e-09	4.811005958420541720e+04	8.508539123967125488e+04
1.553070573933460069e-09	4.908604634508759773e+04	8.703567579079528514e+04
1.604003107056820079e-09	5.009404033014934976e+04	8.904991940093904850e+04
1.656605958949914401e-09	5.113509120772712777e+04	9.113021959029698337e+04
1.710933907269014249e-09	5.221028306974904262e+04	9.327874266667582560e+04
1.767043526088946692e-09	5.332073556064742297e+04	9.549772598136620945e+04
1.824993244816152494e-09	5.446760504329352989e+04	9.778948025899447384e+04
1.884843409033795523e-09	5.565208580316904408e+04	1.001563920037816715e+05
1.946656343342262358e-09	5.687541129202785669e+04	1.026009259847150097e+05
2.010496416260498236e-09	5.813885541234338598e+04	1.051256278022197948e+05
2.076430107255774870e-09	5.944373384387925762e+04	1.077331265390049666e+05
2.144526075971667793e-09	6.079140541376415786e+04	1.104261374978419917e+05
2.214855233726359314e-09	6.218327351149821334e+04	1.132074650291288272e+05
2.287490817355702788e-09	6.362078755036401708e+04	1.160800054511831258e+05
2.362508465477946229e-09	6.510544447676414711e+04	1.190467500663049432e+05
2.439986297259550245e-09	6.663879032905719941e+04	1.221107882757517509e+05
2.520004993764092080e-09	6.822242184751521563e+04	1.252753107968667609e+05
2.602647881969005809e-09	6.985798813707950467e+04	1.285436129857132473e+05
2.688001021537606561e-09	7.154719238464569207e+04	1.319190982686730276e+05
2.776153294436799262e-09	7.329179363266716246e+04	1.354052816865838249e+05
2.867196497493770032e-09	7.509360861092300911e+04	1.390057935551053961e+05
2.961225437988034610e-09	7.695451362835825421e+04	1.427243832451260532e+05
3.058338032378433485e-09	7.887644652696697449e+04	1.465649230871475884e+05
3.158635408267817403e-09	8.086140869975172973e+04	1.505314124037121655e+05
3.262222009711669644e-09	8.291146717486226407e+04	1.546279816740730021e+05
3.369205705980266915e-09	8.502875676808218122e+04	1.588588968354425742e+05
3.479697903887691433e-09	8.721548230590652383e+04	1.632285637253011519e+05
3.593813663804627762e-09	8.947392092152421537e+04	1.677415326693878742e+05
3.711671819475765297e-09	9.180642442609643331e+04	1.724025032201543509e+05
3.833395101766601886e-09	9.421542175780115940e+04	1.772163290506154299e+05
3.959110266468459240e-09	9.670342151119255868e+04	1.821880230086909141e+05
4.088948226294862618e-09	9.927301454951090273e+04	1.873227623373046226e+05
4.223044187206674123e-09	1.019268767026616406e+05	1.926258940656738414e+05
4.361537789208003199e-09	1.046677715536748146e+05	1.981029405774058541e+05
4.504573251759458750e-09	1.074985533165450761e+05	2.037596053611977841e+05
4.652299523960189308e-09	1.104221698084496456e+05	2.096017789501294901e+05
4.804870439655131104e-09	1.134416655194401101e+05	2.156355450557342556e+05
4.962444877628916452e-09	1.165601847828028694e+05	2.218671869032339309e+05
5.125186927053329472e-09	1.197809750493916945e+05	2.283031937745372416e+05
5.293266058360561204e-09	1.231073902693405544e+05	2.349502677658135945e+05
5.466857299720180771e-09	1.265428943846786860e+05	2.418153307666791952e+05
5.646141419303669251e-09	1.300910649364858400e+05	2.489055316682649718e+05
5.831305113526221869e-09	1.337555967903421551e+05	2.562282538076697092e+05
6.022541201461928965e-09	1.375403059839542548e+05	2.637911226565532852e+05
6.220048825634711276e-09	1.414491337009619456e+05	2.716020137618739973e+05
6.424033659394191079e-09	1.454861503750662669e+05	2.796690609470419004e+05
6.634708121092347870e-09	1.496555599287502992e+05	2.880006647820250364e+05
6.852291595284060743e-09	1.539617041510075796e+05	2.966055013312312076e+05
7.077010661181889919e-09	1.584090672186382581e+05	3.054925311882751994e+05
7.309099328602911004e-09	1.630022803658180346e+05	3.146710088070365018e+05
7.548799281653435948e-09	1.677461267068062443e+05	3.241504921387292561e+05
7.796360130405233414e-09	1.726455462168118102e+05	3.339408525850149454e+05
8.052039670825474778e-09	1.777056408762064530e+05	3.440522852775265346e+05
8.316104153230961616e-09	1.829316799834405538e+05	3.544953196945055388e+05
8.588828559546249041e-09	1.883291056421942776e+05	3.652808306256097276e+05
8.870496889654407999e-09	1.939035384284793981e+05	3.764200494963086094e+05
9.161402457138517586e-09	1.996607832435908495e+05	3.879245760636583436e+05
9.461848194721997291e-09	2.056068353590056358e+05	3.998063904956387705e+05
9.772146969725725887e-09	2.117478866595217260e+05	4.120778658466269262e+05
1.009262190987047331e-08	2.175906427036183595e+05	4.239657215261859819e+05
1.042360673976401127e-08	2.223554445599286992e+05	4.342462872555668582e+05
1.076544612842315905e-08	2.272765068157638307e+05	4.448640013820183813e+05
1.111849604819270880e-08	2.323589539890353626e+05	4.558299205968384631e+05
1.148312414543511117e-08	2.376080786548466131e+05	4.671554641925535980e+05
1.185971012337669343e-08	2.430293469568822475e+05	4.788524259543265216e+05
1.224864613750930795e-08	2.486284042995438504e+05	4.909329864413430332e+05
1.265033720395903769e-08	2.543321995277136448e+05	5.032746338082375005e+05
1.306520162124721228e-08	2.597687688232531655e+05	5.152430270186315756e+05
1.349367140588306343e-08	2.653836289513987140e+05	5.276039204758610576e+05
1.393619274224142065e-08	2.711826269122092053e+05	5.403701861202992732e+05
1.439322644719406651e-08	2.771718014565430349e+05	5.535551180241528200e+05
1.486524844997857277e-08	2.833573893744742381e+05	5.671724462351633701e+05
1.535275028780422776e-08	2.897458319899349590e+05	5.812363510743059451e+05
1.585623961771137302e-08	2.963347393345704768e+05	5.957455079812976765e+05
1.637624074521687477e-08	3.025056203853106126e+05	6.096105979727292433e+05
1.691329517029648562e-08	3.088788738258137600e+05	6.239303898734623799e+05
1.746796215127245689e-08	3.154611364043494686e+05	6.387197955107148737e+05
1.804081928719382751e-08	3.222592625195684959e+05	6.539942157410815125e+05
1.863246311931559514e-08	3.292803313582872506e+05	6.697695564881205792e+05
1.924350975230330612e-08	3.365316542673563235e+05	6.860622453058889369e+05
1.987459549580983990e-08	3.440207823672863306e+05	7.028892484856754309e+05
2.052637752709252173e-08	3.510781660065045580e+05	7.190324816477143904e+05
2.119953457536071000e-08	3.582718578913421952e+05	7.355315810083174147e+05
2.189476762856620985e-08	3.657014649730506935e+05	7.525717639093557373e+05
2.261280066337277307e-08	3.733747240272669005e+05	7.701707750404833350e+05
2.335438139906479724e-08	3.812996255551110953e+05	7.883469410236956319e+05
2.412028207618007283e-08	3.894844221040447592e+05	8.071191894976411713e+05
2.491130026067788373e-08	3.979376368616118561e+05	8.265070688278055750e+05
2.572825967447932303e-08	4.059849152781587909e+05	8.452417304765607696e+05
2.657201105324503850e-08	4.140557832822946948e+05	8.641373369030440226e+05
2.744343303228365032e-08	4.223913332389798015e+05	8.836526196767307119e+05
2.834343306151309448e-08	4.310002453218912124e+05	9.038079009173021186e+05
2.927294835042816131e-08	4.398914843686755630e+05	9.246241692029092228e+05
3.023294684405776334e-08	4.490743092164263944e+05	9.461231014264959376e+05
3.122442823092858392e-08	4.585582823433182784e+05	9.683270853688993957e+05
3.224842498408442807e-08	4.676906573789370595e+05	9.899644299935124582e+05
3.330600343624588813e-08	4.766868008084147586e+05	1.011459926047330024e+06
3.439826489022924478e-08	4.859779703499666648e+05	1.033660361131697311e+06
3.552634676578139226e-08	4.955738413058472797e+05	1.056588853533140849e+06
3.669142378402493899e-08	5.054844062772552716e+05	1.080269279696195852e+06
3.789470919074667737e-08	5.157199855700655608e+05	1.104726299086994492e+06
3.913745601980383687e-08	5.262912379418186611e+05	1.129985379872250604e+06
4.042095839796305955e-08	5.366019648926017107e+05	1.154842944822119549e+06
4.174655289253134782e-08	5.465589465269756038e+05	1.179114317364297109e+06
4.311561990318228626e-08	5.568424647047710605e+05	1.204181663062300766e+06
4.452958509942655287e-08	5.674632281043904368e+05	1.230071085642389255e+06
4.598992090522439315e-08	5.784322965924751479e+05	1.256809544895528816e+06
4.749814803228499868e-08	5.897610927410271252e+05	1.284424884751800448e+06
4.905583706365045989e-08	6.014614137222354766e+05	1.312945862275509164e+06
5.066461008921269181e-08	6.130382056914855493e+05	1.341336682845082600e+06
5.232614239486661694e-08	6.239746322939150268e+05	1.368515930564421928e+06
5.404216420705915059e-08	6.352697160749224713e+05	1.396586514426476089e+06
5.581446249454960394e-08	6.469352191005302593e+05	1.425577665561094647e+06
5.764488282925879445e-08	6.589832891705628717e+05	1.455519573725195834e+06
5.953533130814369715e-08	6.714264724686825648e+05	1.486443418740679510e+06
6.148777653810024108e-08	6.842777266272825655e+05	1.518381402963349130e+06
6.350425168595962148e-08	6.971982740214827936e+05	1.550599543126056436e+06
6.558685659571428548e-08	7.091109577833547955e+05	1.580755304047756828e+06
6.773775997517751128e-08	7.214143148156331154e+05	1.611900015064697945e+06
6.995920165435375620e-08	7.341211571434879443e+05	1.644066108530131401e+06
7.225349491787214948e-08	7.472447169590209378e+05	1.677287080407643924e+06
7.462302891391107044e-08	7.607986604005267145e+05	1.711597525151966140e+06
7.707027114212294845e-08	7.747971017836412648e+05	1.747033171733698575e+06
7.959777002314985573e-08	7.891236428176055197e+05	1.783335083039798774e+06
8.220815755240541849e-08	8.019825163225263823e+05	1.816451217110370984e+06
8.490415204088747078e-08	8.152630931368208257e+05	1.850653385919979773e+06
8.768856094587425811e-08	8.289792029074690072e+05	1.885977205686746165e+06
9.056428379445295063e-08	8.431451288210171042e+05	1.922459460653118324e+06
9.353431520292386860e-08	8.577756224772831192e+05	1.960138141390910139e+06
9.660174799522647250e-08	8.728859192508484703e+05	1.999052484362557763e+06
9.976977642363202159e-08	8.884917541563186096e+05	2.039243012779762503e+06
1.030416994950587396e-07	9.024018737490370404e+05	2.075587241724324645e+06
1.064209244064724761e-07	9.165956084218574688e+05	2.112719666812852491e+06
1.099109700929497372e-07	9.312548228182015009e+05	2.151069839827657677e+06
1.135154708920999096e-07	9.463947822208160069e+05	2.190677696485528257e+06
1.172381803286598596e-07	9.620312525333029917e+05	2.231584482184378430e+06
1.210829750232039531e-07	9.781805166978465859e+05	2.273832794953888748e+06
1.250538587290391570e-07	9.948593916513554286e+05	2.317466629814703949e+06
1.291549665014884007e-07	1.009939485199297313e+06	2.357340320294657722e+06
1.333905690039058854e-07	1.024944418595873518e+06	2.397143399428259581e+06
1.377650769549053468e-07	1.040441434760652250e+06	2.438251809871596284e+06
1.422830457214352017e-07	1.056446671416098718e+06	2.480708359615037218e+06
1.469491800624817218e-07	1.072976795516960090e+06	2.524557260525518563e+06
1.517683390283405561e-07	1.090049020606295671e+06	2.569844174386298284e+06
1.567455410205594968e-07	1.107681124740696279e+06	2.616616260446579661e+06
1.618859690178197646e-07	1.123885499368949328e+06	2.659914835188317578e+06
1.671949759731990056e-07	1.139557691069914959e+06	2.701978367514552083e+06
1.726780903884356132e-07	1.155743848096295726e+06	2.745421362106988672e+06
1.783410220710008120e-07	1.172460825803154381e+06	2.790289058060840238e+06
1.841896680799711039e-07	1.189726032312404830e+06	2.836628178075319622e+06
1.902301188668944219e-07	1.207557446640651673e+06	2.884486977108033840e+06
1.964686646180446931e-07	1.225973637421529274e+06	2.933915292624990456e+06
2.029118018046678038e-07	1.243216590894120280e+06	2.980400028380635194e+06
2.095662399480432992e-07	1.259367374845983228e+06	3.024151688746034168e+06
2.164389086064020114e-07	1.276047819427828072e+06	3.069338173084125388e+06
2.235369645909794139e-07	1.293275294718023622e+06	3.116006536062443629e+06
2.308677994187169850e-07	1.311067740442001959e+06	3.164205375493733678e+06
2.384390470093720426e-07	1.329443684653680073e+06	3.213984882942976430e+06
2.462585916350547006e-07	1.348422263029537862e+06	3.265396895994074643e+06
2.543345761304648365e-07	1.366571651489852229e+06	3.314672045922907069e+06
2.626754103723835758e-07	1.382966832550018327e+06	3.359375740775681566e+06
2.712897800372467241e-07	1.399899689177816268e+06	3.405545481316940393e+06
2.801866556459195443e-07	1.417387854299344122e+06	3.453229346122016199e+06
2.893753019050950594e-07	1.435449539107787190e+06	3.502476990490233526e+06
2.988652873550382326e-07	1.454103552027527243e+06	3.553339698153146077e+06
3.086664943337274455e-07	1.473369318300183630e+06	3.605870434678538702e+06
3.187891292677645596e-07	1.492240717264884850e+06	3.657363805597368162e+06
3.292437333007768907e-07	1.508602309141838225e+06	3.702130734580085613e+06
3.400411932703706463e-07	1.525500475038164062e+06	3.748365782997626346e+06
3.511927530450727317e-07	1.542952811754981522e+06	3.796117097433279268e+06
3.627100252330649086e-07	1.560977493175787153e+06	3.845434403424629942e+06
3.746050032748993774e-07	1.579593289191711927e+06	3.896369057244929951e+06
3.868900739327976195e-07	1.598819585247436771e+06	3.948974099382650573e+06
3.995780301895269929e-07	1.618171646921707550e+06	4.001923969406733289e+06
4.126820845702951630e-07	1.634182737213084940e+06	4.045738312736429274e+06
4.262158829015325345e-07	1.650718906918299152e+06	4.090989535709829070e+06
4.401935185208874400e-07	1.667797375875961268e+06	4.137724760409644339e+06
4.546295469532399562e-07	1.685435928644675994e+06	4.185992654274662491e+06
4.695390010680058238e-07	1.703652933022879064e+06	4.235843480779276229e+06
4.849374067335232931e-07	1.722467359176031779e+06	4.287329151775046252e+06
5.008407989848212921e-07	1.741898799391086446e+06	4.340503281548792496e+06
5.172657387216018967e-07	1.757312263442922384e+06	4.382540523202186450e+06
