# Frequency (Hz)	Real Part (Ohm/m)
1000.0	12039411.075647173
1018.6101701559753	12087750.388583267
1037.566678745186	12136989.304358328
1056.875971184804	12187144.564734256
1076.5446128423157	12238233.223040001
1096.5792912678098	12290272.64996985
1116.9868184678226	12343280.539489686
1137.7741332214914	12397274.914853098
1158.9483034398106	12452274.134729488
1180.5165285688054	12508296.899446221
1202.4861420374123	12565362.257346943
1224.8646137509306	12623489.611268206
1247.6595526308697	12682698.725136664
1270.8787092020582	12734050.301926829
1294.529978227916	12777756.226606065
1318.6214013947485	12822275.525980411
1343.1611700460153	12867623.337091334
1368.1576279674719	12913815.078683231
1393.619274224142	12960866.45644596
1419.5547660501015	13008793.468354924
1445.9729217920194	13057612.410110578
1472.882723907502	13107339.880679144
1500.2933220192183	13157992.787936416
1528.2140360258693	13209588.354416637
1556.654359271062	13262144.123168355
1585.6239617711371	13315255.185555907
1615.132693503091	13352713.420783602
1645.1905877536624	13390868.760142626
1675.807864530767	13429734.176859478
1706.9949340384078	13469322.88559462
1738.7624002162504	13509648.346935572
1771.1210643450886	13550724.271973703
1804.0819287193826	13592564.626966102
1837.6562003881704	13635183.6380843
1871.8552949655793	13678595.796251284
1906.690840512252	13722815.862068594
1942.1746814890264	13767858.870835077
1978.3188827841643	13813740.137659037
2015.1357338155585	13851838.271412706
2052.6377527092523	13883144.765254049
2090.8376905557498	13915033.878272768
2129.748535745521	13947516.453110887
2169.3835183851843	13980603.53419385
2209.756114795903	14014306.37148573
2250.880052095462	14048636.424314352
2292.7693128656488	14083605.365267577
2335.438139906479	14119225.084162116
2378.9010410788933	14155507.69208619
2423.1727942376006	14192465.525517438
2468.2684522556924	14230111.150517428
2514.2033481427966	14267723.192538803
2560.9931002584594	14291956.515157191
2608.6536176225477	14316640.824032947
2657.2011053245064	14341784.512097066
2706.652070033241	14367396.128474403
2757.0233256095826	14393484.381390499
2808.3319988231724	14420058.14113243
2860.5955351757416	14447126.443064844
2913.831704832789	14474698.490702055
2968.0586086656026	14502783.658837344
3023.2946844057765	14531391.496730486
3079.5587129142264	14560531.731354615
3136.8698245668766	14590214.270703483
3195.2475057592133	14613081.937589232
3254.711605531848	14630592.014133217
3315.282342319423	14648427.956181139
3376.9803108250912	14666595.828145457
3439.8264890229243	14685101.807298409
3503.8422452906757	14703952.185872298
3569.0493456752292	14723153.373198949
3635.4699612933177	14742711.89788895
3703.126675869927	14762634.41005143
3772.0424934169973	14782927.68355519
3842.240846055061	14803598.618331874
3913.745601980384	14824654.242722036
3986.581073580439	14845266.273597911
4060.7720257003657	14855862.539922321
4136.343684063274	14866656.004566044
4213.321743847289	14877650.337423354
4291.732378422157	14888849.276685895
4371.602248248501	14900256.630113678
4452.958509942655	14911876.276329782
4535.828825510186	14923712.166139117
4620.241371751313	14935768.32387175
4706.224849841281	14948048.848751219
4793.808495089106	14960557.916288298
4883.02208687788	14973299.779700732
4973.895958790063	14986278.77135938
5066.461008921268	14994135.381228657
5160.7487103859075	14998337.171128873
5256.791122018419	15002617.157054096
5354.620899273607	15006976.794245645
5454.271305329836	15011417.56502715
5555.7762223988775	15015940.979308521
5659.170163246242	15020548.57509936
5764.488282925873	15025241.919031873
5871.766390733255	15030022.60689357
5981.040962380945	15034892.264169835
6092.349152400711	15039852.546596615
6205.7288067765	15044905.140723377
6321.218475812449	15049353.270463243
6438.8574272404185	15047539.439182015
6558.685659571435	15045691.852192009
6680.743915695614	15043809.881293744
6805.073696735206	15041892.88659683
6931.717276155407	15039940.216302417
7060.717714137772	15037951.206481572
7192.118872221193	15035925.180849517
7325.96542821523	15033861.450535707
7462.302891391108	15031759.313849602
7601.17761795533	15029618.056042077
7742.636826811269	15027436.949062405
7886.728615614156	15025215.251310721
8033.501977124735	15019922.635536473
8183.00681586739	15012597.108845742
8335.293965098195	15005135.252856817
8490.415204088747	14997534.530458262
8648.423275731726	14989792.357322559
8809.37190447399	14981906.101027427
8973.31581458352	14973873.080160743
9140.310748756232	14965690.563408865
9310.413487069076	14957355.768627934
9483.681866285926	14948865.861897912
9660.174799522645	14940217.95655904
9839.952296278227	14931409.112230312
10023.075482838643	14922063.890461836
10209.606623060476	14909913.473643526
10399.609139541202	14897536.93550076
10593.1476351837	14884930.067877222
10790.287915161836	14872088.58430207
10991.097009294961	14859008.118532533
11195.643194838794	14845684.223069299
11403.99601970033	14832112.367644358
11616.22632608502	14818287.937680628
11832.40627458378	14804206.232722959
12052.609368708414	14789862.464839946
12276.910479883603	14775251.756995954
12505.385872903913	14760369.141392883
12738.113231864783	14744437.95691402
12975.171686575868	14727767.475002158
13216.641839466038	14710786.752585331
13462.60579298911	14693490.016034955
13713.147177539455	14675871.384274233
13968.351179887397	14657924.866778532
14228.30457214352	14639644.361538526
14493.09574126215	14621023.65298547
14762.81471909391	14602056.40987781
15037.553212997384	14582736.183148531
15317.404637020798	14563056.403712368
15602.46414366368	14543010.380232269
15892.828656229764	14522647.740104245
16188.596901781993	14502228.958373332
16489.86944471065	14481430.179640034
16796.74872092653	14460244.332095474
17109.339072690134	14438664.21232321
17427.746784089173	14416682.482849997
17752.08011717636	14394291.669650964
18082.44934877952	14371484.159608364
18418.96680799711	14348252.197923042
18761.746914391195	14324587.885477701
19110.90621689136	14300483.176151121
19466.56343342263	14275929.874082418
19828.83949127071	14250919.630884321
20197.857568198782	14226618.446717668
20573.743134329114	14202468.884282628
20956.623994804308	14177869.894381475
21346.630333242454	14152813.113092596
21743.8947560008	14127290.020840375
22148.55233726359	14101291.93949843
22560.74066496859	14074810.029438986
22980.599887588487	14047835.286527276
23408.272761782944	14020358.539060064
23843.904700937208	13992370.44464716
24287.643824604504	13963861.48703489
24739.64100886812	13934821.972870484
25200.049937640895	13905763.857299324
25669.027154919517	13878647.82350892
26146.732118010917	13851027.155715726
26633.327251749808	13822892.462595075
27128.978003724646	13794234.178048166
27633.852900531667	13765042.55794946
28148.123605075813	13735307.676833581
28671.964974937695	13705019.424520578
29205.55512182745	13674167.502678297
29749.075472144435	13642741.421320893
30302.71082866393	13610730.495242098
30866.649433372742	13578123.840382116
31441.08303147265	13544910.370126981
32026.206936576502	13513884.548147094
32622.220097116733	13483568.479877314
33229.325163989684	13452688.224418577
33847.72855945983	13421233.282151286
34477.640547344636	13389192.958056161
35119.275304507275	13356556.35807777
35772.850993678774	13323312.385420471
36438.58983763541	13289449.736775365
37116.71819475767	13254956.898477025
37807.466635993485	13219822.142588804
38511.070023255685	13184033.522915114
39227.76758927723	13147578.87093964
39957.803018952654	13111454.728978693
40701.42453219439	13078731.475801924
41458.88496832911	13045399.237315482
42230.441872066716	13011446.680199128
43016.35758106799	12976862.2602176
43816.89931514194	12941634.21829548
44632.33926710397	12905750.576518923
45462.95469532399	12869199.134063087
46309.02801799736	12831967.463043705
47170.84690917023	12794042.904291451
48048.704396551344	12755412.563047739
48942.89896114532	12716063.304580295
49853.73463873894	12675981.749717262
50781.5211232767	12639423.371274104
51726.57387216024	12603923.1999868
52689.21421350677	12567762.364471273
53669.76945540476	12530928.56965382
54668.57299720181	12493409.291647326
55685.96444286408	12455191.773493003
56722.28971644549	12416263.020822885
57777.90117970507	12376609.797441617
58853.1577519145	12336218.620825987
59948.42503189408	12295075.75754075
61064.07542232036	12253167.218569066
62200.48825634718	12210478.754556125
63358.04992658254	12168536.181172179
64537.15401646702	12131167.81295539
65738.20143409586	12093104.013047636
66961.60054853215	12054331.839346817
68207.76732865692	12014838.108896105
69477.1254846024	11974609.393401608
70770.10661181889	11933632.014666608
72087.15033782135	11891892.0399408
73428.70447166759	11849375.277183041
74795.22515621828	11806067.270235876
76187.17702322999	11761953.29391031
77605.0333513357	11717018.348979069
79049.2762269642	11671247.157076709
80520.39670825469	11630330.670116402
82018.8949920221	11590702.651831353
83545.28058382872	11550337.14938308
85100.07247122246	11509220.438065816
86683.79930019773	11467338.537754681
88296.99955494082	11424677.208152298
89940.22174092053	11381221.943946933
91614.0245713852	11336957.969880536
93318.9771573324	11291870.235724987
95055.65920101192	11245943.411164854
96824.66119303115	11199161.880584933
98626.5846131283	11151509.737760756
100462.04213468132	11105103.383812381
102331.65783302448	11064290.51328356
104236.06739764012	11022718.108289648
106175.9183482999	10980372.033765007
108151.87025522892	10937237.891588017
110164.59496336569	10893301.015685586
112214.77682079801	10848546.467046494
114303.11291144785	10802959.02864197
116430.31329208757	10756523.200251764
118597.10123376705	10709223.193193879
120804.21346773289	10661042.924956271
123052.40043592616	10611966.013728598
125342.42654613995	10561975.772832252
127675.07043192645	10518192.269043317
130051.12521734099	10475837.539123036
132471.39878661174	10432694.580472035
134936.71405883064	10388748.724019505
137447.90926775365	10343985.027700743
140005.8382468096	10298388.27137668
142611.37071941295	10251942.951658858
145265.39259467812	10204633.276638146
147968.80626863963	10156443.160515275
150722.53093107554	10107356.218131516
153527.5028780421	10057355.759397566
156384.67583022476	10006424.78361869
159295.0212572123	9957306.739322202
162259.5287078087	9914620.439412132
165279.2061464897	9871139.740197405
168355.08029612005	9826849.857771795
171488.19698705408	9781735.733098052
174679.62151272455	9735782.026887696
177930.43899185772	9688973.114385467
181241.75473742394	9641293.080056751
184614.69463245454	9592725.712176146
188050.40551285836	9543254.49731524
191550.0555573528	9492862.614727959
195114.83468466165	9441532.930631245
198745.9549580986	9389247.992379436
202444.65099768018	9344432.081228567
206212.18039991445	9301081.23301881
210049.8241653915	9256923.618147464
213958.88713434213	9211944.222549682
217940.6984302958	9166127.752746306
221996.61191199525	9119458.630643956
226128.00663372793	9071920.98823824
230336.2873142131	9023498.662218545
234622.88481422624	8974175.188472275
238989.25662310526	8923933.796486896
243436.8873543108	8872757.403647806
247967.289250216	8820628.609430002
252582.00269627848	8770885.587814366
257282.59674479323	8728119.84003514
262070.66964838552	8684558.21441289
266947.8494034318	8640185.89952555
271915.7943036019	8594987.808307933
276976.1935036891	8548948.572922036
282130.76759394706	8502052.539531754
287381.2691851069	8454283.762980435
292729.4835042813	8405626.001369363
298177.22900196735	8356062.71053529
303726.3579703311	8305577.038425311
309378.75717301364	8254151.8193669235
315136.34848664823	8201769.568231548
321001.08955431683	8157853.120594493
326974.97445117676	8115318.150231658
333060.03436245886	8071991.596832798
339258.33827409917	8027858.728902914
345571.9936762143	7982904.540791375
352003.1472796675	7937113.747589866
358553.9857459817	7890470.779935294
365226.7364308175	7842959.778716093
372023.6681413066	7794564.589679922
378947.09190746717	7745268.757941052
385999.36176797637	7695055.522385553
393182.87557057705	7643907.809972273
400500.07578736113	7595641.9920941135
407953.45034524484	7554514.159860556
415545.53347188793	7512620.931670982
423278.90655735444	7469948.063376425
431156.19903182285	7426481.045741852
439180.0892596086	7382205.099512933
447353.3054498463	7337105.170390878
455678.6265841068	7291165.923913831
464158.8833612772	7244371.740243022
472796.9591600391	7196706.708851777
481595.79101923504	7148154.623115858
490558.37063650455	7098698.974802966
499687.7453854889	7048322.94845979
508987.0193519675	7006999.805340968
518459.3543892913	6966864.001325368
528107.971193433	6925981.263167696
537936.1503980698	6884337.690296467
547947.2336900292	6841919.123448198
558144.6249454955	6798711.139853118
568531.7913873753	6754699.048331227
579112.2647641759	6709867.8842972
589889.6425508494	6664202.404672208
600867.5891719692	6617687.082701135
612049.837247669	6570306.102673332
623440.1888627863	6522043.354545046
635042.5168595961	6477013.655133685
646860.7661546321	6438889.317068546
658898.9550799957	6400055.4785849275
671161.1767496272	6360498.935759328
683651.6004510238	6320206.238940952
696374.4730628222	6279163.688178749
709334.1204987989	6237357.328563226
722534.9491787221	6194772.94548165
735981.4475265755	6151396.05978495
749678.1874966878	6107211.922864587
763629.8261282243	6062205.511637944
777841.1071286482	6016361.523440269
792316.8624866261	5969664.370821597
807062.0141149492	5932147.078316177
822081.575524054	5895548.403164076
837380.6535266489	5858268.620439915
852964.4499741016	5820295.054615881
868838.2635251193	5781614.794270426
885007.4914473438	5742214.687698272
901477.6314524917	5702081.338438645
918254.2835656281	5661201.100720367
935343.1520292377	5619560.074822135
952750.0472427299	5577144.102346463
970480.8877380306	5533938.761405694
988541.7021919573	5489929.361718368
1006938.6314760271	5449328.109859292
1025677.9307444209	5415081.825482883
1044765.9715608053	5380198.2119270135
1064209.2440647245	5344665.408387219
1084014.359178331	5308471.333327429
1104188.0508541602	5271603.68037214
1124737.1783647507	5234049.9141221
1145668.7286348727	5195797.265892144
1166989.8186171474	5156832.729369717
1188707.6977119034	5117143.05619256
1210829.7502320393	5076714.751444141
1233363.4979137746	5035534.0690652365
1256316.6024741214	4993587.007180114
1279696.8682159416	4960533.137077949
1303512.2446815087	4928101.732758089
1327770.829355429	4895066.774485437
1352480.8704178738	4861417.030018237
1377650.769549055	4827141.058080792
1403289.084785873	4792227.204473336
1429404.533431761	4756663.598109442
1456005.9950206485	4720438.146979758
1483102.514336103	4683538.534040571
1510703.3044866556	4645952.213025894
1538817.7500383465	4607666.404181601
1567455.410205595	4568668.089920157
1596626.022101425	4533084.489504046
1626339.5040481905	4503106.931316727
1656605.9589499151	4472571.485670677
1687435.6777273756	4441467.770185366
1718839.1428171454	4409785.209262394
1750827.0317357269	4377513.030489664
1783410.220710006	4344640.260978675
1816599.7883753285	4311155.723633582
1850407.019542302	4277048.033350906
1884843.4090337954	4242305.593148442
1919920.6655932867	4206916.590222174
1955650.715865947	4170868.991929804
1992045.7084538713	4134150.541699492
2029118.0180466783	4105730.5360533907
2066880.2496290822	4077650.861542918
2105345.242766708	4049048.619511877
2144526.0759716653	4019914.084889802
2184436.0711494284	3990237.351620989
2225088.7981283693	3960008.3292963733
2266498.079273693	3929216.7397226472
2308677.994187172	3897852.1134275785
2351642.884494346	3865903.786100286
2395407.358720879	3833360.894965227
2439986.29725955	3800212.3750887807
2485394.857429798	3766446.9556170157
2531648.478631358	3735966.9109100387
2578762.8875937983	3710263.762321673
2626754.1037238385	3684082.273764527
2675638.4445520453	3657413.543250398
2725432.531281028	3630248.503123557
2776153.2944368036	3602577.91697766
2827817.979625338	3574392.376515277
2880444.1533962977	3545682.2983489456
2934049.709215787	3516437.920742751
2988652.873550383	3486649.300293198
3044272.2120643063	3456306.3085483643
3100926.6359319235	3425398.628564125
3158635.408267819	3393915.751396246
3217418.1506763715	3369948.4224045766
3277294.849923382	3346080.1496952907
3338285.8647317644	3321767.6843695533
3400411.9327037027	3297002.7599271988
3463694.1773717343	3271776.956027067
3528154.1153808828	3246081.6956240344
3593813.6638046256	3219908.2420526994
3660695.147596906	3193247.6960568293
3728821.30718283	3166090.9927635305
3798215.306190736	3138428.898601062
3868900.7393279755	3110252.0081593636
3940901.6404034477	3081550.7409920776
4014242.490499326	3055911.140851574
4088948.226294856	3034229.966599222
4165044.248545185	3012145.3020048467
4242556.430717777	2989649.638044535
4321511.127789762	2966735.3259501504
4401935.1852088785	2943394.574608679
4483855.948021181	2919619.4479131806
4567301.270168747	2895401.8620643932
4652299.523960189	2870733.5828221953
4738879.609717651	2845606.2227058457
4827070.965603188	2820011.2381421574
4916903.577628021	2793939.926560605
5008407.989848212	2767383.423434325
5101615.314749833	2747475.8540749974
5196557.243827657	2727478.6805400574
5293266.058360566	2707109.3562029903
5391774.640387494	2686360.9552740525
5492116.483887789	2665226.423073359
5594325.706169377	2643698.573632245
5698437.0594691355	2621770.08724994
5804485.942768984	2599433.508004795
5912508.413831869	2576681.2412192
6022541.201461928	2553505.550877286
6134621.717992506	2529898.55699463
6248788.072006888	2505852.2329389467
6365079.081295578	2484588.6058595
6483534.286054714	2466532.5536631714
6604193.962330305	2448140.47526312
6727099.135712336	2429406.1171545233
6852291.595284057	2410323.1094537633
6979813.907830667	2390884.963732602
7109709.432312423	2371085.0708120577
7242022.334607315	2350916.698515187
7376797.60252773	2330372.9893781054
7514081.061116962	2309446.958318347
7653919.388230155	2288131.4902598765
7796360.130405221	2266419.3377138865
7941451.71902934	2244303.118314559
8089243.486805938	2227962.7221903354
8239785.684528512	2211397.2746166345
8393129.498166373	2194523.5412448747
8549327.066268368	2177335.7848239033
8708431.497690724	2159828.1613313355
8870496.889654402	2141994.717986545
9035578.34613892	2123829.391226642
9203731.99661823	2105326.0046447953
9375015.01514529	2086478.266890201
9549485.639791967	2067279.7695289394
9727203.192450536	2047723.9848650447
9908228.099003786	2027804.2637210218
10092621.909870483	2010364.4250742395
10280447.320933098	1995477.0226865218
10471768.194855202	1980312.5632071875
10666649.582795387	1964865.8905566193
10865157.746525371	1949131.7526996809
11067360.180959744	1933104.7998599652
11273325.63710487	1916779.582700822
11483124.14543511	1900150.5504725145
11696827.039703846	1883212.0491249086
11914506.981197748	1865958.3193850373
12136237.983442418	1848383.4947988791
12362095.437367693	1830481.599736713
12592156.13694151	1812311.204386459
12826498.3052806	1798957.9091914454
13065201.621247198	1785356.1069007108
13308347.24654076	1771501.1727549152
13556017.853293689	1757388.3959271682
13808297.652180923	1743012.977921284
14065272.421052363	1728370.030940247
14327029.534098294	1713454.5762243073
14593657.991557576	1698261.5423581495
14865248.449978571	1682785.7635465576
15141893.25304352	1667021.9778579862
15423686.462966273	1650964.8254354484
15710723.892474487	1634608.8466741065
16003103.137387017	1620428.7525170287
16300923.609797413	1608249.6026553912
16604286.571875297	1595843.796742474
16913295.17029647	1583207.1166705946
17228054.471313924	1570335.2658323708
17548671.49648152	1557223.8676598244
17875255.259042352	1543868.4641363053
18207916.800994623	1530264.514280712
18546769.230846975	1516407.3926035129
18891927.762076646	1502292.3875340286
19243509.75230332	1487914.6998184475
19601634.743191857	1473269.4408880316
19966424.501097932	1458511.5962076825
20338003.0584698	1447622.9413444793
20716496.75602067	1436531.6467615024
