# Frequency (Hz)	Imaginary Part (Ohm/m)
1000.0	19243603.506777283
1018.6101701559753	19205057.919905193
1037.566678745186	19165794.993102655
1056.875971184804	19125801.3765515
1076.5446128423157	19085063.47199117
1096.5792912678098	19043567.428095184
1116.9868184678226	19001299.13576149
1137.7741332214914	18958244.223315265
1158.9483034398106	18914388.051622365
1180.5165285688054	18869715.709111866
1202.4861420374123	18824212.00670598
1224.8646137509306	18777861.472655598
1247.6595526308697	18730648.347279716
1270.8787092020582	18686479.69891062
1294.529978227916	18645255.37569039
1318.6214013947485	18603263.86080046
1343.1611700460153	18560490.876673326
1368.1576279674719	18516921.880033508
1393.619274224142	18472542.056952696
1419.5547660501015	18427336.317812864
1445.9729217920194	18381289.292175602
1472.882723907502	18334385.323556066
1500.2933220192183	18286608.464099526
1528.2140360258693	18237942.469158977
1556.654359271062	18188370.791771773
1585.6239617711371	18138086.3987048
1615.132693503091	18095125.12525196
1645.1905877536624	18051364.33519005
1675.807864530767	18006789.149378918
1706.9949340384078	17961384.411775112
1738.7624002162504	17915134.68427861
1771.1210643450886	17868024.24148373
1804.0819287193826	17820037.06533232
1837.6562003881704	17771156.839667425
1871.8552949655793	17721366.944685638
1906.690840512252	17670650.451286193
1942.1746814890264	17618990.115314875
1978.3188827841643	17566368.371700812
2015.1357338155585	17517711.136886407
2052.6377527092523	17472441.75155608
2090.8376905557498	17426329.8952619
2129.748535745521	17379359.889475867
2169.3835183851843	17331515.763889935
2209.756114795903	17282781.250985887
2250.880052095462	17233139.78050422
2292.7693128656488	17182574.473810095
2335.438139906479	17131068.138154414
2378.9010410788933	17078603.260828055
2423.1727942376006	17025162.003207453
2468.2684522556924	16970726.194689173
2514.2033481427966	16915771.895384863
2560.9931002584594	16869278.84525617
2608.6536176225477	16821920.55155351
2657.2011053245064	16773680.911946747
2706.652070033241	16724543.52443864
2757.0233256095826	16674491.681787986
2808.3319988231724	16623508.365828985
2860.5955351757416	16571576.24168487
2913.831704832789	16518677.651873866
2968.0586086656026	16464794.610305475
3023.2946844057765	16409908.796164975
3079.5587129142264	16354001.547684167
3136.8698245668766	16297053.855796184
3195.2475057592133	16245027.814372048
3254.711605531848	16196728.88516799
3315.282342319423	16147531.10467309
3376.9803108250912	16097417.745111879
3439.8264890229243	16046371.767402152
3503.8422452906757	15994375.815361468
3569.0493456752292	15941412.209805889
3635.4699612933177	15887462.94253884
3703.126675869927	15832509.670228167
3772.0424934169973	15776533.70816916
3842.240846055061	15719516.023931587
3913.745601980384	15661437.230888462
3986.581073580439	15603119.127121402
4060.7720257003657	15554191.042820917
4136.343684063274	15504352.398546197
4213.321743847289	15453586.248621175
4291.732378422157	15401875.33200789
4371.602248248501	15349202.066437514
4452.958509942655	15295548.542432195
4535.828825510186	15240896.517215673
4620.241371751313	15185227.408510497
4706.224849841281	15128522.288219897
4793.808495089106	15070761.875991965
4883.02208687788	15011926.532664195
4973.895958790063	14951996.25358591
5066.461008921268	14897906.935891407
5160.7487103859075	14847740.42614923
5256.791122018419	14796640.309124628
5354.620899273607	14744589.210227199
5454.271305329836	14691569.431522481
5555.7762223988775	14637562.945714436
5659.170163246242	14582551.390015984
5764.488282925873	14526516.059905438
5871.766390733255	14469437.902766785
5981.040962380945	14411297.511411592
6092.349152400711	14352075.117480349
6205.7288067765	14291750.584720997
6321.218475812449	14231530.465932447
6438.8574272404185	14181335.62349839
6558.685659571435	14130206.646505682
6680.743915695614	14078126.15055124
6805.073696735206	14025076.42770528
6931.717276155407	13971039.440490426
7060.717714137772	13915996.815748788
7192.118872221193	13859929.838394875
7325.96542821523	13802819.445052281
7462.302891391108	13744646.217571903
7601.17761795533	13685390.376429591
7742.636826811269	13625031.774000883
7886.728615614156	13563549.887710603
8033.501977124735	13508719.018902099
8183.00681586739	13457845.061651438
8335.293965098195	13406024.331399838
8490.415204088747	13353239.208540646
8648.423275731726	13299471.745563343
8809.37190447399	13244703.660951177
8973.31581458352	13188916.33296526
9140.310748756232	13132090.793312976
9310.413487069076	13074207.720698558
9483.681866285926	13015247.434253637
9660.174799522645	12955189.886845531
9839.952296278227	12894014.658261014
10023.075482838643	12833323.043241533
10209.606623060476	12782961.902623698
10399.609139541202	12731663.532609724
10593.1476351837	12679410.491201067
10790.287915161836	12626185.01180063
10991.097009294961	12571968.997171914
11195.643194838794	12516744.013285775
11403.99601970033	12460491.283052659
11616.22632608502	12403191.67993817
11832.40627458378	12344825.721459843
12052.609368708414	12285373.56256292
12276.910479883603	12224814.98887278
12505.385872903913	12163129.409821874
12738.113231864783	12108748.664840516
12975.171686575868	12058206.884775514
13216.641839466038	12006724.513583517
13462.60579298911	11954284.046703598
13713.147177539455	11900867.65381199
13968.351179887397	11846457.17275955
14228.30457214352	11791034.103396459
14493.09574126215	11734579.601281954
14762.81471909391	11677074.471277015
15037.553212997384	11618499.161017857
15317.404637020798	11558833.75426783
15602.46414366368	11498057.964145761
15892.828656229764	11438151.9134492
16188.596901781993	11388573.913941082
16489.86944471065	11338073.259426128
16796.74872092653	11286632.779137658
17109.339072690134	11234234.98275812
17427.746784089173	11180862.054472161
17752.08011717636	11126495.84690907
18082.44934877952	11071117.874972504
18418.96680799711	11014709.3095553
18761.746914391195	10957250.97113743
19110.90621689136	10898723.323264722
19466.56343342263	10839106.465906272
19828.83949127071	10778380.12868822
20197.857568198782	10725446.21746232
20573.743134329114	10676114.725853976
20956.623994804308	10625865.166792756
21346.630333242454	10574680.454887139
21743.8947560008	10522543.186783576
22148.55233726359	10469435.635249143
22560.74066496859	10415339.743144078
22980.599887588487	10360237.117282204
23408.272761782944	10304109.022176996
23843.904700937208	10246936.373671353
24287.643824604504	10188699.732448751
24739.64100886812	10129379.297423685
25200.049937640895	10071301.587260157
25669.027154919517	10023308.567459337
26146.732118010917	9974422.389393728
26633.327251749808	9924626.43123604
27128.978003724646	9873903.761823958
27633.852900531667	9822237.134903356
28148.123605075813	9769608.983264368
28671.964974937695	9716001.412768392
29205.55512182745	9661396.196263835
29749.075472144435	9605774.767388718
30302.71082866393	9549118.214257928
30866.649433372742	9491407.273032911
31441.08303147265	9432622.321371844
32026.206936576502	9381969.453065703
32622.220097116733	9334606.419644427
33229.325163989684	9286361.952112088
33847.72855945983	9237219.646829879
34477.640547344636	9187162.794884512
35119.275304507275	9136174.376406971
35772.850993678774	9084237.054785572
36438.58983763541	9031333.170771368
37116.71819475767	8977444.736473735
37807.466635993485	8922553.429244392
38511.070023255685	8866640.585447421
39227.76758927723	8809687.194113484
39957.803018952654	8754325.30409033
40701.42453219439	8708637.100981414
41458.88496832911	8662098.632638527
42230.441872066716	8614694.07548098
43016.35758106799	8566407.311448557
43816.89931514194	8517221.922521215
44632.33926710397	8467121.18513675
45462.95469532399	8416088.064504616
46309.02801799736	8364105.208813931
47170.84690917023	8311154.94333364
48048.704396551344	8257219.264402962
48942.89896114532	8202279.833309907
49853.73463873894	8146317.97005594
50781.5211232767	8098698.789104375
51726.57387216024	8054015.040550845
52689.21421350677	8008499.7198335305
53669.76945540476	7962137.351252963
54668.57299720181	7914912.1711042775
55685.96444286408	7866808.1223173775
56722.28971644549	7817808.848997359
57777.90117970507	7767897.69086334
58853.1577519145	7717057.677583764
59948.42503189408	7665271.523006325
61064.07542232036	7612521.619280475
62200.48825634718	7558790.030870569
63358.04992658254	7506964.7470968105
64537.15401646702	7464278.227393694
65738.20143409586	7420797.304295534
66961.60054853215	7376507.193819984
68207.76732865692	7331392.836852248
69477.1254846024	7285438.894024869
70770.10661181889	7238629.740502137
72087.15033782135	7190949.460667488
73428.70447166759	7142381.842712034
74795.22515621828	7092910.373122351
76187.17702322999	7042518.231065742
77605.0333513357	6991188.282670939
79049.2762269642	6938903.075202411
80520.39670825469	6895035.1778628975
82018.8949920221	6853724.153191938
83545.28058382872	6811644.32332254
85100.07247122246	6768781.380659137
86683.79930019773	6725120.751339385
88296.99955494082	6680647.590278874
89940.22174092053	6635346.776123648
91614.0245713852	6589202.906108792
93318.9771573324	6542200.290821305
95055.65920101192	6494322.948865543
96824.66119303115	6445554.601429368
98626.5846131283	6395878.666749176
100462.04213468132	6348372.644611517
102331.65783302448	6309351.746599754
104236.06739764012	6269604.663036354
106175.9183482999	6229117.879484633
108151.87025522892	6187877.630001942
110164.59496336569	6145869.892459109
112214.77682079801	6103080.383772734
114303.11291144785	6059494.555048819
116430.31329208757	6015097.58663596
118597.10123376705	5969874.383086521
120804.21346773289	5923809.56802404
123052.40043592616	5876887.478915038
125342.42654613995	5829092.161743646
127675.07043192645	5789617.2493577665
130051.12521734099	5752302.901694376
132471.39878661174	5714294.127671714
134936.71405883064	5675578.003897069
137447.90926775365	5636141.3664712
140005.8382468096	5595970.806512456
142611.37071941295	5555052.665597614
145265.39259467812	5513373.031117885
147968.80626863963	5470917.731548449
150722.53093107554	5427672.331630005
153527.5028780421	5383622.127460613
156384.67583022476	5338752.141496218
159295.0212572123	5296239.129398358
162259.5287078087	5261428.241829481
165279.2061464897	5225969.517719666
168355.08029612005	5189850.900720657
171488.19698705408	5153060.11011349
174679.62151272455	5115584.6366329575
177930.43899185772	5077411.738214275
181241.75473742394	5038528.435660671
184614.69463245454	4998921.508230326
188050.40551285836	4958577.489141136
191550.0555573528	4917482.660991928
195114.83468466165	4875623.051098332
198745.9549580986	4832984.426741947
202444.65099768018	4798358.610920816
206212.18039991445	4765486.69985948
210049.8241653915	4732003.036939945
213958.88713434213	4697896.23735603
217940.6984302958	4663154.704428381
221996.61191199525	4627766.6256614765
226128.00663372793	4591719.968727218
230336.2873142131	4555002.477373862
234622.88481422624	4517601.667258721
238989.25662310526	4479504.82170336
243436.8873543108	4440698.98736982
247967.289250216	4401170.969856276
252582.00269627848	4364086.846778733
257282.59674479323	4333800.212484285
262070.66964838552	4302949.9387721615
266947.8494034318	4271525.536216907
271915.7943036019	4239516.32018304
276976.1935036891	4206911.4071922265
282130.76759394706	4173699.711222734
287381.2691851069	4139869.939940077
292729.4835042813	4105410.5908575193
298177.22900196735	4070309.9474250632
303726.3579703311	4034556.0750457495
309378.75717301364	3998136.8170177215
315136.34848664823	3961039.790400834
321001.08955431683	3931428.941448297
326974.97445117676	3903171.3878526553
333060.03436245886	3874387.956376411
339258.33827409917	3845068.8603427205
345571.9936762143	3815204.130943021
352003.1472796675	3784783.6138475365
358553.9857459817	3753796.9657526673
365226.7364308175	3722233.650864191
372023.6681413066	3690082.937314954
378947.09190746717	3657333.893515927
385999.36176797637	3623975.3844393604
393182.87557057705	3589996.0678327233
400500.07578736113	3558438.8686342477
407953.45034524484	3532697.093087508
415545.53347188793	3506476.2587177227
423278.90655735444	3479767.4501586915
431156.19903182285	3452561.5861277045
439180.0892596086	3424849.416337867
447353.3054498463	3396621.518352846
455678.6265841068	3367868.294383177
464158.8833612772	3338579.968022906
472796.9591600391	3308746.5809254795
481595.79101923504	3278357.989417845
490558.37063650455	3247403.861051452
499687.7453854889	3215873.671089127
508987.0193519675	3191123.433778444
518459.3543892913	3167355.182501633
528107.971193433	3143144.600024255
537936.1503980698	3118483.454487397
547947.2336900292	3093363.3608358544
558144.6249454955	3067775.777967127
568531.7913873753	3041712.005827327
579112.2647641759	3015163.182453101
589889.6425508494	2988120.2809584406
600867.5891719692	2960574.106465451
612049.837247669	2932515.292978006
623440.1888627863	2903934.300197178
635042.5168595961	2877657.338554795
646860.7661546321	2856206.885158317
658898.9550799957	2834357.235174205
671161.1767496272	2812100.9594860463
683651.6004510238	2789430.4907202865
696374.4730628222	2766338.120673283
709334.1204987989	2742815.9976903996
722534.9491787221	2718856.1239963733
735981.4475265755	2694450.3529759906
749678.1874966878	2669590.386404125
763629.8261282243	2644267.7716242876
777841.1071286482	2618473.898674604
792316.8624866261	2592199.9973603413
807062.0141149492	2571895.1791124367
822081.575524054	2552251.5534424987
837380.6535266489	2532242.3565563653
852964.4499741016	2511860.7851114967
868838.2635251193	2491099.9091539904
885007.4914473438	2469952.6697623297
901477.6314524917	2448411.8766472605
918254.2835656281	2426470.205707026
935343.1520292377	2404120.196537087
952750.0472427299	2381354.249893506
970480.8877380306	2358164.6251091277
988541.7021919573	2334543.4374616602
1006938.6314760271	2313039.6867507347
1025677.9307444209	2295436.954429896
1044765.9715608053	2277506.6322653554
1064209.2440647245	2259242.6237543826
1084014.359178331	2240638.718937291
1104188.0508541602	2221688.592285987
1124737.1783647507	2202385.800553225
1145668.7286348727	2182723.7805818287
1166989.8186171474	2162695.8470731573
1188707.6977119034	2142295.190314016
1210829.7502320393	2121514.8738612942
1233363.4979137746	2100347.832183493
1256316.6024741214	2078786.8682583654
1279696.8682159416	2062360.8850773843
1303512.2446815087	2046337.4793491904
1327770.829355429	2030015.8753139155
1352480.8704178738	2013390.5234503266
1377650.769549055	1996455.7709596509
1403289.084785873	1979205.8598435763
1429404.533431761	1961634.9249464564
1456005.9950206485	1943736.9919611013
1483102.514336103	1925505.9753974488
1510703.3044866556	1906935.6765134286
1538817.7500383465	1888019.7812073303
1567455.410205595	1868751.857870934
1596626.022101425	1851378.0557511663
1626339.5040481905	1837091.2809204676
1656605.9589499151	1822538.6267791875
1687435.6777273756	1807715.1452681192
1718839.1428171454	1792615.7962438257
1750827.0317357269	1777235.4457649442
1783410.220710006	1761568.864346596
1816599.7883753285	1745610.725182285
1850407.019542302	1729355.6023327566
1884843.4090337954	1712797.9688810916
1919920.6655932867	1695932.1950535092
1955650.715865947	1678752.5463051866
1992045.7084538713	1661253.1813704344
2029118.0180466783	1648095.125459744
2066880.2496290822	1635143.8530138435
2105345.242766708	1621951.5551839876
2144526.0759716653	1608513.7464467722
2184436.0711494284	1594825.8578024313
2225088.7981283693	1580883.235221344
2266498.079273693	1566681.1380616028
2308677.994187172	1552214.7374571445
2351642.884494346	1537479.1146758972
2395407.358720879	1522469.259447333
2439986.29725955	1507180.06825895
2485394.857429798	1491606.342621004
2531648.478631358	1477693.2633174139
2578762.8875937983	1466184.58566827
2626754.1037238385	1454461.7295698025
2675638.4445520453	1442520.70912463
2725432.531281028	1430357.4642571367
2776153.2944368036	1417967.859333009
2827817.979625338	1405347.681753081
2880444.1533962977	1392492.6405209892
2934049.709215787	1379398.3647842077
2988652.873550383	1366060.4023478949
3044272.2120643063	1352474.2181611066
3100926.6359319235	1338635.1927748357
3158635.408267819	1324538.6207713298
3217418.1506763715	1314067.5245581518
3277294.849923382	1303663.1445460892
3338285.8647317644	1293065.1372516332
3400411.9327037027	1282269.8992381159
3463694.1773717343	1271273.76000829
3528154.1153808828	1260072.9807563396
3593813.6638046256	1248663.7530966306
3660695.147596906	1237042.197768825
3728821.30718283	1225204.363318895
3798215.306190736	1213146.22475557
3868900.7393279755	1200863.6821818186
3940901.6404034477	1188352.5594008223
4014242.490499326	1177276.3272578954
4088948.226294856	1168051.1776387796
4165044.248545185	1158654.346415536
4242556.430717777	1149082.6385643024
4321511.127789762	1139332.7996012736
4401935.1852088785	1129401.5144761482
4483855.948021181	1119285.4064449796
4567301.270168747	1108981.0359220323
4652299.523960189	1098484.8993103039
4738879.609717651	1087793.4278102503
4827070.965603188	1076902.9862063623
4916903.577628021	1065809.8716311543
5008407.989848212	1054510.31230614
5101615.314749833	1046213.1285399584
5196557.243827657	1037887.8592541388
5293266.058360566	1029407.6552903145
5391774.640387494	1020769.6332877682
5492116.483887789	1011970.8562259418
5594325.706169377	1003008.3324258308
5698437.0594691355	993879.014532773
5804485.942768984	984579.7984803164
5912508.413831869	975107.5224348082
6022541.201461928	965458.9657203271
6134621.717992506	955630.8477236308
6248788.072006888	945619.8267787028
6365079.081295578	936835.6434151456
6483534.286054714	929464.3487682663
6604193.962330305	921955.8730737371
6727099.135712336	914307.6633689217
6852291.595284057	906517.1191801112
6979813.907830667	898581.5916383384
7109709.432312423	890498.3825787373
7242022.334607315	882264.7436231292
7376797.60252773	873877.8752455553
7514081.061116962	865334.9258203987
7653919.388230155	856632.9906528053
7796360.130405221	847769.1109910586
7941451.71902934	838740.2730205626
8089243.486805938	832183.7691194919
8239785.684528512	825538.979021857
8393129.498166373	818770.5282498535
8549327.066268368	811876.1154572925
8708431.497690724	804853.3964695346
8870496.889654402	797699.9834864581
9035578.34613892	790413.4442705702
9203731.99661823	782991.3013200258
9375015.01514529	775431.0310262506
9549485.639791967	767730.062815883
9727203.192450536	759885.7782767548
9908228.099003786	751895.5102676013
10092621.909870483	744946.1174811646
10280447.320933098	739067.9888576479
10471768.194855202	733080.467260249
10666649.582795387	726981.5168671098
10865157.746525371	720769.0639693817
11067360.180959744	714440.9962661401
11273325.63710487	707995.162146183
11483124.14543511	701429.3699564566
11696827.039703846	694741.3872568706
11914506.981197748	687928.9400612452
12136237.983442418	680989.7120641294
12362095.437367693	673921.3438532375
12592156.13694151	666747.8790106862
12826498.3052806	661549.5876090566
13065201.621247198	656254.5551199231
13308347.24654076	650860.9811751842
13556017.853293689	645367.0319015856
13808297.652180923	639770.839297177
14065272.421052363	634070.500596175
14327029.534098294	628264.0776220005
14593657.991557576	622349.5961282783
14865248.449978571	616325.0451275744
15141893.25304352	610188.3762076339
15423686.462966273	603937.5028349024
15710723.892474487	597570.299645081
16003103.137387017	592081.0705912786
16300923.609797413	587399.6026589521
16604286.571875297	582631.0118118253
16913295.17029647	577773.6766776294
17228054.471313924	572825.9457100814
17548671.49648152	567786.1366273406
17875255.259042352	562652.5358400171
18207916.800994623	557423.3978685285
18546769.230846975	552096.9447496217
18891927.762076646	546671.365431844
19243509.75230332	541144.8151597672
19601634.743191857	535515.4148467521
19966424.501097932	529844.4929653395
20338003.0584698	525706.3091387801
20716496.75602067	521491.1130070717
21102034.285685964	517197.47135811095
21494746.734379806	512823.9243074747
