# Frequency (Hz)	Real Part (Ohm/m)
1000.0	967770.7695908698
1018.6101701559753	979432.3469860781
1037.566678745186	991310.9483208989
1056.875971184804	1003410.612447775
1076.5446128423157	1015735.453382883
1096.5792912678098	1028289.6617049382
1116.9868184678226	1041077.5059800403
1137.7741332214914	1054103.334213031
1158.9483034398106	1067371.5753258592
1180.5165285688054	1080886.7406634686
1202.4861420374123	1094653.4255276965
1224.8646137509306	1108676.310739731
1247.6595526308697	1122960.16423164
1270.8787092020582	1136739.2643169237
1294.529978227916	1150035.0180418754
1318.6214013947485	1163578.208006
1343.1611700460153	1177373.439039811
1368.1576279674719	1191425.4016705034
1393.619274224142	1205738.8737167774
1419.5547660501015	1220318.7219133566
1445.9729217920194	1235169.9035657211
1472.882723907502	1250297.4682356538
1500.2933220192183	1265706.55945814
1528.2140360258693	1281402.416490225
1556.654359271062	1297390.3760924216
1585.6239617711371	1313630.3951458386
1615.132693503091	1328382.5088669355
1645.1905877536624	1343409.161934542
1675.807864530767	1358715.463572611
1706.9949340384078	1374306.6180886244
1738.7624002162504	1390187.9266431078
1771.1210643450886	1406364.7890520908
1804.0819287193826	1422842.7056230938
1837.6562003881704	1439627.279025299
1871.8552949655793	1456724.2161945158
1906.690840512252	1474139.3302735966
1942.1746814890264	1491878.542588976
1978.3188827841643	1509947.8846639765
2015.1357338155585	1527167.8508531274
2052.6377527092523	1543678.625854019
2090.8376905557498	1560496.6691870838
2129.748535745521	1577627.6991682693
2169.3835183851843	1595077.54053235
2209.756114795903	1612852.1264134124
2250.880052095462	1630957.5003621725
2292.7693128656488	1649399.818400856
2335.438139906479	1668185.3511163113
2378.9010410788933	1687320.485792071
2423.1727942376006	1706811.7285801051
2468.2684522556924	1726665.706712975
2514.2033481427966	1746757.7376136328
2560.9931002584594	1764703.2946768098
2608.6536176225477	1782982.821610475
2657.2011053245064	1801602.5336507477
2706.652070033241	1820568.761700344
2757.0233256095826	1839887.9544811605
2808.3319988231724	1859566.6807269051
2860.5955351757416	1879611.6314165348
2913.831704832789	1900029.622049268
2968.0586086656026	1920827.594961918
3023.2946844057765	1942012.621689372
3079.5587129142264	1963591.9053689837
3136.8698245668766	1985572.7831897163
3195.2475057592133	2006201.0107111647
3254.711605531848	2025830.2189862358
3315.282342319423	2045824.7301673328
3376.9803108250912	2066191.3426036967
3439.8264890229243	2086936.981163001
3503.8422452906757	2108068.6995858895
3569.0493456752292	2129593.6828843146
3635.4699612933177	2151519.2497845283
3703.126675869927	2173852.8552155225
3772.0424934169973	2196602.0928437826
3842.240846055061	2219774.6976552247
3913.745601980384	2243378.5485851634
3986.581073580439	2267147.342610106
4060.7720257003657	2287943.7103485554
4136.343684063274	2309127.102029243
4213.321743847289	2330704.72023359
4291.732378422157	2352683.901584279
4371.602248248501	2375072.1192397936
4452.958509942655	2397876.9854353676
4535.828825510186	2421106.2540712245
4620.241371751313	2444767.823348995
4706.224849841281	2468869.73845718
4793.808495089106	2493420.194306614
4883.02208687788	2518427.5383168138
4973.895958790063	2543900.273254191
5066.461008921268	2567344.909826879
5160.7487103859075	2589452.7581596766
5256.791122018419	2611972.037311729
5354.620899273607	2634910.404080593
5454.271305329836	2658275.6577581256
5555.7762223988775	2682075.7427823334
5659.170163246242	2706318.7514385683
5764.488282925873	2731012.9266109886
5871.766390733255	2756166.6645852304
5981.040962380945	2781788.517903232
6092.349152400711	2807887.198271191
6205.7288067765	2834471.579521645
6321.218475812449	2861066.074721111
6438.8574272404185	2883753.4186646943
6558.685659571435	2906862.9779394553
6680.743915695614	2930402.610044548
6805.073696735206	2954380.318708525
6931.717276155407	2978804.2566106906
7060.717714137772	3003682.7281530937
7192.118872221193	3029024.1922841226
7325.96542821523	3054837.2653746293
7462.302891391108	3081130.7241475997
7601.17761795533	3107913.5086623253
7742.636826811269	3135194.725354119
7886.728615614156	3162983.650130612
8033.501977124735	3187932.9800668396
8183.00681586739	3211203.299118095
8335.293965098195	3234906.6827664785
8490.415204088747	3259051.19041783
8648.423275731726	3283645.031464907
8809.37190447399	3308696.5680786576
8973.31581458352	3334214.318051459
9140.310748756232	3360206.9576932522
9310.413487069076	3386683.324781582
9483.681866285926	3413652.421566538
9660.174799522645	3441123.4178316146
9839.952296278227	3469105.654011538
10023.075482838643	3496854.1429517455
10209.606623060476	3519788.5510884286
10399.609139541202	3543149.7724629585
10593.1476351837	3566945.7501423205
10790.287915161836	3591184.575015323
10991.097009294961	3615874.488543593
11195.643194838794	3641023.885563763
11403.99601970033	3666641.317141795
11616.22632608502	3692735.493480454
11832.40627458378	3719315.286880856
12052.609368708414	3746389.7347591496
12276.910479883603	3773968.0427193404
12505.385872903913	3802059.5876832814
12738.113231864783	3826477.207281529
12975.171686575868	3848940.783470847
13216.641839466038	3871822.410635361
13462.60579298911	3895129.868774853
13713.147177539455	3918871.082676223
13968.351179887397	3943054.1246080063
14228.30457214352	3967687.2170650293
14493.09574126215	3992778.7355641453
14762.81471909391	4018337.211492005
15037.553212997384	4044371.3350058063
15317.404637020798	4070889.9579880605
15602.46414366368	4097902.097056317
15892.828656229764	4124372.0822447315
16188.596901781993	4145358.9415741563
16489.86944471065	4166736.3699267395
16796.74872092653	4188511.635858461
17109.339072690134	4210692.143194363
17427.746784089173	4233285.433545933
17752.08011717636	4256299.188875332
18082.44934877952	4279741.234107335
18418.96680799711	4303619.53978991
18761.746914391195	4327942.224804276
19110.90621689136	4352717.559125408
19466.56343342263	4377953.96663393
19828.83949127071	4403660.027980308
20197.857568198782	4425029.444631269
20573.743134329114	4444320.898686541
20956.623994804308	4463971.36998434
21346.630333242454	4483987.539896636
21743.8947560008	4504376.214136871
22148.55233726359	4525144.32507397
22560.74066496859	4546298.934089426
22980.599887588487	4567847.233978244
23408.272761782944	4589796.551394566
23843.904700937208	4612154.349342812
24287.643824604504	4634928.229715188
24739.64100886812	4658125.935876405
25200.049937640895	4680473.929441793
25669.027154919517	4697140.807636331
26146.732118010917	4714117.859270037
26633.327251749808	4731410.856723392
27128.978003724646	4749025.679801862
27633.852900531667	4766968.317735089
28148.123605075813	4785244.871213303
28671.964974937695	4803861.554461609
29205.55512182745	4822824.697352905
29749.075472144435	4842140.747560103
30302.71082866393	4861816.272748394
30866.649433372742	4881857.962808352
31441.08303147265	4902272.632130536
32026.206936576502	4918093.98452098
32622.220097116733	4931928.286906203
33229.325163989684	4946020.048012803
33847.72855945983	4960374.059191396
34477.640547344636	4974995.200960442
35119.275304507275	4989888.444665686
35772.850993678774	5005058.85417046
36438.58983763541	5020511.587577449
37116.71819475767	5036251.898982522
37807.466635993485	5052285.140261149
38511.070023255685	5068616.762888123
39227.76758927723	5085252.31979111
39957.803018952654	5100827.156550858
40701.42453219439	5111159.783478864
41458.88496832911	5121684.702352156
42230.441872066716	5132405.491756558
43016.35758106799	5143325.7968759835
43816.89931514194	5154449.330731836
44632.33926710397	5165779.875445481
45462.95469532399	5177321.283524208
46309.02801799736	5189077.479171119
47170.84690917023	5201052.459619407
48048.704396551344	5213250.296491451
48942.89896114532	5225675.137183218
49853.73463873894	5238331.20627442
50781.5211232767	5246732.352377651
51726.57387216024	5253461.135559692
52689.21421350677	5260315.142541693
53669.76945540476	5267296.703759879
54668.57299720181	5274408.19302029
55685.96444286408	5281652.028305899
56722.28971644549	5289030.672598757
57777.90117970507	5296546.6347174235
58853.1577519145	5304202.470170005
59948.42503189408	5312000.782023044
61064.07542232036	5319944.2217866
62200.48825634718	5328035.490315778
63358.04992658254	5335044.3566713035
64537.15401646702	5337897.352687812
65738.20143409586	5340803.4434456425
66961.60054853215	5343763.617046965
68207.76732865692	5346778.8799827
69477.1254846024	5349850.257474733
70770.10661181889	5352978.793824506
72087.15033782135	5356165.552768087
73428.70447166759	5359411.617837855
74795.22515621828	5362718.092730909
76187.17702322999	5366086.101684338
77605.0333513357	5369516.789857479
79049.2762269642	5373011.323721272
80520.39670825469	5373236.030379029
82018.8949920221	5372266.948283406
83545.28058382872	5371279.831405089
85100.07247122246	5370274.344113702
86683.79930019773	5369250.144532734
88296.99955494082	5368206.8844232885
89940.22174092053	5367144.209065691
91614.0245713852	5366061.757138866
93318.9771573324	5364959.1605974985
95055.65920101192	5363836.044546883
96824.66119303115	5362692.02711546
98626.5846131283	5361526.719324977
100462.04213468132	5359494.757355975
102331.65783302448	5354866.580546326
104236.06739764012	5350152.272578739
106175.9183482999	5345350.230537706
108151.87025522892	5340458.821677194
110164.59496336569	5335476.382865485
112214.77682079801	5330401.220019698
114303.11291144785	5325231.607529783
116430.31329208757	5319965.7876717895
118597.10123376705	5314601.9700102275
120804.21346773289	5309138.330789299
123052.40043592616	5303573.012312797
125342.42654613995	5297904.122312476
127675.07043192645	5290468.111536335
130051.12521734099	5282371.371434008
132471.39878661174	5274123.949620669
134936.71405883064	5265723.041884035
137447.90926775365	5257165.791824958
140005.8382468096	5248449.289886215
142611.37071941295	5239570.572363225
145265.39259467812	5230526.620396367
147968.80626863963	5221314.358944523
150722.53093107554	5211930.655739539
153527.5028780421	5202372.320221217
156384.67583022476	5192636.1024524905
159295.0212572123	5182464.063119559
162259.5287078087	5171425.204355107
165279.2061464897	5160180.910550719
168355.08029612005	5148727.35852535
171488.19698705408	5137060.653947896
174679.62151272455	5125176.830013097
177930.43899185772	5113071.846092769
181241.75473742394	5100741.586361946
184614.69463245454	5088181.8583994685
188050.40551285836	5075388.391762492
191550.0555573528	5062356.83653452
195114.83468466165	5049082.761846357
198745.9549580986	5035561.654369583
202444.65099768018	5022021.112971545
206212.18039991445	5008291.815675482
210049.8241653915	4994307.013820617
213958.88713434213	4980061.952423637
217940.6984302958	4965551.788010174
221996.61191199525	4950771.58696799
226128.00663372793	4935716.323869467
230336.2873142131	4920380.879762938
234622.88481422624	4904760.040432171
238989.25662310526	4888848.494623477
243436.8873543108	4872640.832239842
247967.289250216	4856131.542501413
252582.00269627848	4839746.563131403
257282.59674479323	4824072.941167049
262070.66964838552	4808107.630430975
266947.8494034318	4791845.202545514
271915.7943036019	4775280.1281099515
276976.1935036891	4758406.774820498
282130.76759394706	4741219.405555227
287381.2691851069	4723712.176423393
292729.4835042813	4705879.13477846
298177.22900196735	4687714.217194112
303726.3579703311	4669211.247402653
309378.75717301364	4650363.934194983
315136.34848664823	4631165.869281534
321001.08955431683	4613625.011588888
326974.97445117676	4596226.898702288
333060.03436245886	4578505.003974477
339258.33827409917	4560453.301770296
345571.9936762143	4542065.654316488
352003.1472796675	4523335.809614799
358553.9857459817	4504257.399316214
365226.7364308175	4484823.936555669
372023.6681413066	4465028.813746429
378947.09190746717	4444865.30033345
385999.36176797637	4424326.540504917
393182.87557057705	4403405.550861178
400500.07578736113	4383184.760547288
407953.45034524484	4364871.525193058
415545.53347188793	4346217.477412778
423278.90655735444	4327216.274629213
431156.19903182285	4307861.456228673
439180.0892596086	4288146.441364365
447353.3054498463	4268064.526718803
455678.6265841068	4247608.884224627
464158.8833612772	4226772.55874299
472796.9591600391	4205548.465698709
481595.79101923504	4183929.388671471
490558.37063650455	4161907.97694214
499687.7453854889	4139476.7429934493
508987.0193519675	4120056.779558883
518459.3543892913	4100946.836924381
528107.971193433	4081481.2550057815
537936.1503980698	4061653.4152954924
547947.2336900292	4041456.5761143663
558144.6249454955	4020883.8703194717
568531.7913873753	3999928.30296916
579112.2647641759	3978582.7489447473
589889.6425508494	3956839.9505278654
600867.5891719692	3934692.514932777
612049.837247669	3912132.9117927505
623440.1888627863	3889153.470599632
635042.5168595961	3867367.2243927345
646860.7661546321	3848213.5684406837
658898.9550799957	3828703.4596922547
671161.1767496272	3808830.26450026
683651.6004510238	3788587.225764195
696374.4730628222	3767967.46063278
709334.1204987989	3746963.958163693
722534.9491787221	3725569.5769397826
735981.4475265755	3703777.042640918
749678.1874966878	3681578.945570617
763629.8261282243	3658967.738136701
777841.1071286482	3635935.732285008
792316.8624866261	3612475.096885379
807062.0141149492	3592931.998043469
822081.575524054	3573725.7597031407
837380.6535266489	3554162.089999244
852964.4499741016	3534234.337073283
868838.2635251193	3513935.725274541
885007.4914473438	3493259.352856297
901477.6314524917	3472198.189629141
918254.2835656281	3450745.0745706456
935343.1520292377	3428892.7133905347
952750.0472427299	3406633.67605055
970480.8877380306	3383960.394238163
988541.7021919573	3360865.1587932524
1006938.6314760271	3339316.298568681
1025677.9307444209	3320690.564248493
1044765.9715608053	3301718.2018433246
1064209.2440647245	3282392.760545537
1084014.359178331	3262707.6694968576
1104188.0508541602	3242656.2355542276
1124737.1783647507	3222231.641014053
1145668.7286348727	3201426.941294117
1166989.8186171474	3180235.062572351
1188707.6977119034	3158648.799381649
1210829.7502320393	3136660.812159936
1233363.4979137746	3114263.6247546393
1256316.6024741214	3091449.621880712
1279696.8682159416	3073010.5536469007
1303512.2446815087	3054842.347232846
1327770.829355429	3036336.0274059963
1352480.8704178738	3017485.3018182083
1377650.769549055	2998283.7610196653
1403289.084785873	2978724.876279608
1429404.533431761	2958801.9973664754
1456005.9950206485	2938508.350286774
1483102.514336103	2917837.034981833
1510703.3044866556	2896781.0229817173
1538817.7500383465	2875333.1550154756
1567455.410205595	2853486.138576899
1596626.022101425	2833386.399445352
1626339.5040481905	2816173.313954179
1656605.9589499151	2798639.8900131043
1687435.6777273756	2780780.166069071
1718839.1428171454	2762588.0696235006
1750827.0317357269	2744057.4151675818
1783410.220710006	2725181.9020791412
1816599.7883753285	2705955.112480339
1850407.019542302	2686370.5090555525
1884843.4090337954	2666421.432828593
1919920.6655932867	2646101.100898593
1955650.715865947	2625402.604133755
1992045.7084538713	2604318.904822145
2029118.0180466783	2587697.3824142697
2066880.2496290822	2571236.340568869
2105345.242766708	2554468.9559337785
2144526.0759716653	2537389.5274175624
2184436.0711494284	2519992.247830489
2225088.7981283693	2502271.201910051
2266498.079273693	2484220.364309692
2308677.994187172	2465833.59755013
2351642.884494346	2447104.6499325586
2395407.358720879	2428027.1534129772
2439986.29725955	2408594.621437019
2485394.857429798	2388800.4467344265
2531648.478631358	2370820.4995689197
2578762.8875937983	2355486.2291486696
2626754.1037238385	2339866.5853466773
2675638.4445520453	2323956.2573157563
2725432.531281028	2307749.835372942
2776153.2944368036	2291241.809160151
2827817.979625338	2274426.5657706037
2880444.1533962977	2257298.3878403595
2934049.709215787	2239851.4516043738
2988652.873550383	2222079.8249163353
3044272.2120643063	2203977.465231682
3100926.6359319235	2185538.2175530773
3158635.408267819	2166755.812337621
3217418.1506763715	2152260.2296425113
3277294.849923382	2137806.831750472
3338285.8647317644	2123084.4536643284
3400411.9327037027	2108088.0896169045
3463694.1773717343	2092812.640682834
3528154.1153808828	2077252.913044893
3593813.6638046256	2061403.6162280291
3660695.147596906	2045259.361300549
3728821.30718283	2028814.6590418308
3798215.306190736	2012063.9180759098
3868900.7393279755	1995001.4429703762
3940901.6404034477	1977621.4322998466
4014242.490499326	1962020.6841167796
4088948.226294856	1948723.3870379084
4165044.248545185	1935178.6249977818
4242556.430717777	1921381.7926313677
4321511.127789762	1907328.1988670013
4401935.1852088785	1893013.0653313757
4483855.948021181	1878431.5247248493
4567301.270168747	1863578.619166496
4652299.523960189	1848449.298508393
4738879.609717651	1833038.4186184981
4827070.965603188	1817340.739631598
4916903.577628021	1801350.9241677003
5008407.989848212	1785063.535517254
5101615.314749833	1772726.5316999569
5196557.243827657	1760327.1876933638
5293266.058360566	1747697.089784984
5391774.640387494	1734831.9436054453
5492116.483887789	1721727.3748664216
5594325.706169377	1708378.9278733449
5698437.0594691355	1694782.0640104092
5804485.942768984	1680932.1601973951
5912508.413831869	1666824.50731778
6022541.201461928	1652454.3086175707
6134621.717992506	1637816.678074377
6248788.072006888	1622906.638736094
6365079.081295578	1609672.32672702
6483534.286054714	1598370.5246766587
6604193.962330305	1586858.3941670682
6727099.135712336	1575132.0209498375
6852291.595284057	1563187.4179317222
6979813.907830667	1551020.5238189923
7109709.432312423	1538627.2017365582
7242022.334607315	1526003.2378213687
7376797.60252773	1513144.3397896765
7514081.061116962	1500046.135477596
7653919.388230155	1486704.1713545285
7796360.130405221	1473113.9110089187
7941451.71902934	1459270.7336058102
8089243.486805938	1448960.453062976
8239785.684528512	1438506.7215368752
8393129.498166373	1427858.4442883076
8549327.066268368	1417012.0007882784
8708431.497690724	1405963.7031291241
8870496.889654402	1394709.7947706005
9035578.34613892	1383246.4492626046
9203731.99661823	1371569.7689441473
9375015.01514529	1359675.7836181074
9549485.639791967	1347560.4492013177
9727203.192450536	1335219.646349535
9908228.099003786	1322649.1790568193
10092621.909870483	1311610.7269133865
10280447.320933098	1302149.1575821498
10471768.194855202	1292511.5068357163
10666649.582795387	1282694.4977689877
10865157.746525371	1272694.7924931047
11067360.180959744	1262508.9910005266
11273325.63710487	1252133.6300089979
11483124.14543511	1241565.1817839872
11696827.039703846	1230800.0529392243
11914506.981197748	1219834.5832149095
12136237.983442418	1208665.0442331836
12362095.437367693	1197287.638230445
12592156.13694151	1185738.938902614
12826498.3052806	1177199.8614920683
13065201.621247198	1168501.8703979375
13308347.24654076	1159642.0082095284
13556017.853293689	1150617.2624782356
13808297.652180923	1141424.564693269
14065272.421052363	1132060.7892383318
14327029.534098294	1122522.752328876
14593657.991557576	1112807.21092958
14865248.449978571	1102910.8616516867
15141893.25304352	1092830.3396298091
15423686.462966273	1082562.217377843
15710723.892474487	1072103.0036235857
16003103.137387017	1063013.448667981
16300923.609797413	1055183.1680344725
16604286.571875297	1047207.1645460054
16913295.17029647	1039082.7262754532
17228054.471313924	1030807.0908262645
17548671.49648152	1022377.4443932164
17875255.259042352	1013790.9208056958
18207916.800994623	1005044.6005531629
18546769.230846975	996135.5097924918
18891927.762076646	987060.6193368295
19243509.75230332	977816.8436256396
19601634.743191857	968401.0396755816
19966424.501097932	958911.6240223688
20338003.0584698	951877.986583163
20716496.75602067	944713.4519543984
21102034.285685964	937415.5841171031
21494746.734379806	929981.9017175807
21894767.628566206	922409.8772237179
