Frequency [GHz]	Zx real [Ohm/m]	Zy real [Ohm/m]
1.000000000000000166e-10	2.346977857817743143e+02	3.965615124181532565e+02
1.032794731918951654e-10	2.404630943045114861e+02	4.068152572495523600e+02
1.066664958279539403e-10	2.464174745746818473e+02	4.174052708938625642e+02
1.101645949633656381e-10	2.525671271495558869e+02	4.283425811966558854e+02
1.137774133221491146e-10	2.589184559320176504e+02	4.396385776587438272e+02
1.175087130904807540e-10	2.654780748392293503e+02	4.513050232965633768e+02
1.213623798344240958e-10	2.722528146899936132e+02	4.633540668915222227e+02
1.253424265461399975e-10	2.792497303179842447e+02	4.757982556410573807e+02
1.294529978227915867e-10	2.864761079182543426e+02	4.886505482245825647e+02
1.336983741824946476e-10	2.939394726346704374e+02	5.019243282979281844e+02
1.380829765218092491e-10	3.016475963961748334e+02	5.156334184303303800e+02
1.426113707194128486e-10	3.096085060100357964e+02	5.297920944984774678e+02
1.472882723907502473e-10	3.178304915205143288e+02	5.444151005526067593e+02
1.521185517986104510e-10	3.263221148416506026e+02	5.595176641701303879e+02
1.571072389247450498e-10	3.350922186731601755e+02	5.751155123127796287e+02
1.622595287078087593e-10	3.441499357087254793e+02	5.912248877037795864e+02
1.675807864530767868e-10	3.535046981462699023e+02	6.078625657421091546e+02
1.730765534195724819e-10	3.631662475101189784e+02	6.250458719714594054e+02
1.787525525904235329e-10	3.731446447952772587e+02	6.427927001220826924e+02
1.846146946324547531e-10	3.834502809443831666e+02	6.611215307443171696e+02
1.906690840512252406e-10	3.940938876682531600e+02	6.800514504531957982e+02
1.969220255479172543e-10	4.050865486212832707e+02	6.996021718041744180e+02
2.033800305846981002e-10	4.164397109433438686e+02	7.197940538206802330e+02
2.100498241653915480e-10	4.281651971801890113e+02	7.406481231948569075e+02
2.169383518385184289e-10	4.402752175947905471e+02	7.621860961835785702e+02
2.240527869300018610e-10	4.527823828824221550e+02	7.844304012225430824e+02
2.314005380130653023e-10	4.656997173027276062e+02	8.074042022819839985e+02
2.389892566231049743e-10	4.790406722424544341e+02	8.311314229883284952e+02
2.468268452255692806e-10	4.928191402229724645e+02	8.556367715369193547e+02
2.549214654451423314e-10	5.070494693671652726e+02	8.809457664217414958e+02
2.632815465648021228e-10	5.217464783407606319e+02	9.070847630089499489e+02
2.719157943036017723e-10	5.369254717836550981e+02	9.340809809818657641e+02
2.808331998823172083e-10	5.526022562473091284e+02	9.619625326860293626e+02
2.900430493863991314e-10	5.687931566547996454e+02	9.907584524038152267e+02
2.995549334359813486e-10	5.855150333006804431e+02	1.020498726589105331e+03
3.093787571730138678e-10	6.027852994083447129e+02	1.051214325093498701e+03
3.195247505759212065e-10	6.206219392631785468e+02	1.082937233416573235e+03
3.300034791125284578e-10	6.390435269403866414e+02	1.115700486013792670e+03
3.408258547423451742e-10	6.580692456469903391e+02	1.149538200696730883e+03
3.520031472796679687e-10	6.777189076981425160e+02	1.184485614161446392e+03
3.635469961293320139e-10	6.980129751485601446e+02	1.220579118681997443e+03
3.754694224073336536e-10	7.189725811005595233e+02	1.257856300007315895e+03
3.877828414589456106e-10	7.406195517108810691e+02	1.296355976500891529e+03
4.005000757873611052e-10	7.629764289192257820e+02	1.336118239564040778e+03
4.136343684063274911e-10	7.860664939221632039e+02	1.377184495384836964e+03
4.271993966306778827e-10	8.099137914168632051e+02	1.419597508056191373e+03
4.412092863191189219e-10	8.345431546398932596e+02	1.463401444107977795e+03
4.556786265841064474e-10	8.599802312271572191e+02	1.508641918499577969e+03
4.706224849841281415e-10	8.862515099219018566e+02	1.555366042120735528e+03
4.860564232142136024e-10	9.133843481586093276e+02	1.603622470850197942e+03
5.019965133110081441e-10	9.414070005514895456e+02	1.653461456223208870e+03
5.184593543892912175e-10	9.703486483172523549e+02	1.704934897760640524e+03
5.354620899273606527e-10	1.000239429662786051e+03	1.758096397014237482e+03
5.530224256192902378e-10	1.031110471169394714e+03	1.813001313384266268e+03
5.711586478126431938e-10	1.062993920206271241e+03	1.869706821767682186e+03
5.898896425508497150e-10	1.095922978406963466e+03	1.928271972096859827e+03
6.092349152400710261e-10	1.129931936243691325e+03	1.988757750830876603e+03
6.292146109610343618e-10	1.165056208735517430e+03	2.051227144463384320e+03
6.498495354469890483e-10	1.201332372327560961e+03	2.115745205113209522e+03
6.711611767496282870e-10	1.238798202979653979e+03	2.182379118265976558e+03
6.931717276155404727e-10	1.277492715504103217e+03	2.251198272737299249e+03
7.159041085964887260e-10	1.317456204193526219e+03	2.322274332930397577e+03
7.393819919175865964e-10	1.358730284781064938e+03	2.395681313463384413e+03
7.636298261282244400e-10	1.401357937776672998e+03	2.471495656243929716e+03
7.886728615614152294e-10	1.445383553224606203e+03	2.549796310071574680e+03
8.145371766280743462e-10	1.490852976928721318e+03	2.630664812850576254e+03
8.412497049736117954e-10	1.537813558193721974e+03	2.714185376498901405e+03
8.688382635251186617e-10	1.586314199132066733e+03	2.800444974641794033e+03
8.973315814583522479e-10	1.636405405587881432e+03	2.889533433181218697e+03
9.267593301146878953e-10	1.688139339730911615e+03	2.981543523835516226e+03
9.571521538991863169e-10	1.741569874375275504e+03	3.076571060746660351e+03
9.885417021919573871e-10	1.796752649079587172e+03	3.174715000255723680e+03
1.020960662306046580e-09	1.842871000866510713e+03	3.260255539572926409e+03
1.054442793526168950e-09	1.884362425588831229e+03	3.339668496068765307e+03
1.089022962263730067e-09	1.927214550461855197e+03	3.421685779183775594e+03
1.124737178364752061e-09	1.971471999282248134e+03	3.506392797111264827e+03
1.161622632608501755e-09	2.017180859272121779e+03	3.593877758983338026e+03
1.199717735435884489e-09	2.064388729071683883e+03	3.684231766726946262e+03
1.239062156947916503e-09	2.113144768305788602e+03	3.777548909932309925e+03
1.279696868215940940e-09	2.163499748776004708e+03	3.873926363832534207e+03
1.321664183946605026e-09	2.215506107331526437e+03	3.973464490496448889e+03
1.365007806546013663e-09	2.269218000473956636e+03	4.076266943340020134e+03
1.409772871628966933e-09	2.324691360752852688e+03	4.182440775065208982e+03
1.456005995020649598e-09	2.381983955010738555e+03	4.292096549138631417e+03
1.503755321299737753e-09	2.441155444538252141e+03	4.405348454926156592e+03
1.553070573933460069e-09	2.502267447202067160e+03	4.522314426603295942e+03
1.604003107056820079e-09	2.565383601610270944e+03	4.643116265965224557e+03
1.656605958949914401e-09	2.630569633382047869e+03	4.767879769264345668e+03
1.710933907269014249e-09	2.697893423590639486e+03	4.896734858207430079e+03
1.767043526088946692e-09	2.767425079450890735e+03	5.029815715248796550e+03
1.824993244816152494e-09	2.839237007324958995e+03	5.167260923320376605e+03
1.884843409033795523e-09	2.913403988122239753e+03	5.309213610144210179e+03
1.946656343342262358e-09	2.990003255172006902e+03	5.455821597277606088e+03
2.010496416260498236e-09	3.069114574649858241e+03	5.607237554046218065e+03
2.076430107255774870e-09	3.150820328641741071e+03	5.763619156525310245e+03
2.144526075971667793e-09	3.235205600932022662e+03	5.925129251734758327e+03
2.214855233726359314e-09	3.322358265604972075e+03	6.091936027218804156e+03
2.287490817355702788e-09	3.412369078551893836e+03	6.264213186187116662e+03
2.362508465477946229e-09	3.505331771979214864e+03	6.442140128399551031e+03
2.439986297259550245e-09	3.601343152015951546e+03	6.625902136983004311e+03
2.520004993764092080e-09	3.700503199522159321e+03	6.815690571374837418e+03
2.602647881969005809e-09	3.802915174203405059e+03	7.011703066593869153e+03
2.688001021537606561e-09	3.908685722139612608e+03	7.214143739046373412e+03
2.776153294436799262e-09	4.017924986840305792e+03	7.423223399081446587e+03
2.867196497493770032e-09	4.130746723941885648e+03	7.639159770517083416e+03
2.961225437988034610e-09	4.247268419666340378e+03	7.862177717365497301e+03
3.058338032378433485e-09	4.367611413164820988e+03	8.092509477993922701e+03
3.158635408267817403e-09	4.491901022873406873e+03	8.330394906964575057e+03
3.262222009711669644e-09	4.620266677012699802e+03	8.576081724805746489e+03
3.369205705980266915e-09	4.752842048367087955e+03	8.829825775974035423e+03
3.479697903887691433e-09	4.889765193484099655e+03	9.091891295276418532e+03
3.593813663804627762e-09	5.031178696438726547e+03	9.362551183029530876e+03
3.711671819475765297e-09	5.177229817312467276e+03	9.642087289242712359e+03
3.833395101766601886e-09	5.328070645541727572e+03	9.930790707120830120e+03
3.959110266468459240e-09	5.483858258295194901e+03	1.022896207619233792e+04
4.088948226294862618e-09	5.644754884045210019e+03	1.053691189537845639e+04
4.223044187206674123e-09	5.810928071503357387e+03	1.085496084632927341e+04
4.361537789208003199e-09	5.982550864096311670e+03	1.118344012736362311e+04
4.504573251759458750e-09	6.159801980163538246e+03	1.152269179836042895e+04
4.652299523960189308e-09	6.342865999064521930e+03	1.187306913696062657e+04
4.804870439655131104e-09	6.531933553389369081e+03	1.223493700645070021e+04
4.962444877628916452e-09	6.727201527472871931e+03	1.260867223571077557e+04
5.125186927053329472e-09	6.928873262418797822e+03	1.299466401162310285e+04
5.293266058360561204e-09	7.137158767847909075e+03	1.339331428434940244e+04
5.466857299720180771e-09	7.352274940590168626e+03	1.380503818589917319e+04
5.646141419303669251e-09	7.574445790548943478e+03	1.423026446242489692e+04
5.831305113526221869e-09	7.803902673972320372e+03	1.466943592069417173e+04
6.022541201461928965e-09	8.040884534374528812e+03	1.512300988920384953e+04
6.220048825634711276e-09	8.285638151358276446e+03	1.559145869441620562e+04
6.424033659394191079e-09	8.538418397597200965e+03	1.607527015261325869e+04
6.634708121092347870e-09	8.799488504245940931e+03	1.657494807788120670e+04
6.852291595284060743e-09	9.069120335054274619e+03	1.709101280675413000e+04
7.077010661181889919e-09	9.347594669470789086e+03	1.762400174006327143e+04
7.309099328602911004e-09	9.635201495030796650e+03	1.817446990255604760e+04
7.548799281653435948e-09	9.932240309333110417e+03	1.874299052086770462e+04
7.796360130405233414e-09	1.023902043191998564e+04	1.933015562044727631e+04
8.052039670825474778e-09	1.055586132638516028e+04	1.993657664205972469e+04
8.316104153230961616e-09	1.088309293304528910e+04	2.056288507850597671e+04
8.588828559546249041e-09	1.122105601252123415e+04	2.120973313222405341e+04
8.870496889654407999e-09	1.157010250058710881e+04	2.187779439445612297e+04
9.161402457138517586e-09	1.193059587465634286e+04	2.256776454668851875e+04
9.461848194721997291e-09	1.230291153228673829e+04	2.328036208509545395e+04
9.772146969725725887e-09	1.268743718209835970e+04	2.401632906874055698e+04
1.009262190987047331e-08	1.306701909533212711e+04	2.475022477838318446e+04
1.042360673976401127e-08	1.341444928629495371e+04	2.544160372557702794e+04
1.076544612842315905e-08	1.377327335723096985e+04	2.615565625999852637e+04
1.111849604819270880e-08	1.414386496737938432e+04	2.689312595586240059e+04
1.148312414543511117e-08	1.452661003003403493e+04	2.765478077270048743e+04
1.185971012337669343e-08	1.492190711441174062e+04	2.844141385507155064e+04
1.224864613750930795e-08	1.533016786069996124e+04	2.925384435849755391e+04
1.265033720395903769e-08	1.574880114666032387e+04	3.008831478669758872e+04
1.306520162124721228e-08	1.616379272046705955e+04	3.092363976274991001e+04
1.349367140588306343e-08	1.659239383168541099e+04	3.178635899745706774e+04
1.393619274224142065e-08	1.703505080144633030e+04	3.267737087818776854e+04
1.439322644719406651e-08	1.749222458786261632e+04	3.359760325468363590e+04
1.486524844997857277e-08	1.796439126604480771e+04	3.454801440526985243e+04
1.535275028780422776e-08	1.845204252385903601e+04	3.552959403475229192e+04
1.585623961771137302e-08	1.895532872992896591e+04	3.654281383056005143e+04
1.637624074521687477e-08	1.945005430822893322e+04	3.755065987117468467e+04
1.691329517029648562e-08	1.996100427924271571e+04	3.859155795250688243e+04
1.746796215127245689e-08	2.048871071757987374e+04	3.966659200737129140e+04
1.804081928719382751e-08	2.103372314709420607e+04	4.077688151586872118e+04
1.863246311931559514e-08	2.159660911312695316e+04	4.192358267114975024e+04
1.924350975230330612e-08	2.217795477351668887e+04	4.310788958340937097e+04
1.987459549580983990e-08	2.277836550899116992e+04	4.433103552336635039e+04
2.052637752709252173e-08	2.337069787461029409e+04	4.555110107272436289e+04
2.119953457536071000e-08	2.397855538025031638e+04	4.680511166660303570e+04
2.189476762856620985e-08	2.460634740983273150e+04	4.810024720173148671e+04
2.261280066337277307e-08	2.525472771072615069e+04	4.943785635953317978e+04
2.335438139906479724e-08	2.592437146976892473e+04	5.081933205107736285e+04
2.412028207618007283e-08	2.661597601637068510e+04	5.224611286757824564e+04
2.491130026067788373e-08	2.733026154867216974e+04	5.371968457846336241e+04
2.572825967447932303e-08	2.803882414909037107e+04	5.519574024172225472e+04
2.657201105324503850e-08	2.876037037847836473e+04	5.670407680894929945e+04
2.744343303228365032e-08	2.950557952302629201e+04	5.826187886954214628e+04
2.834343306151309448e-08	3.027522760169320100e+04	5.987076863109489204e+04
2.927294835042816131e-08	3.107011608277192136e+04	6.153242150106489862e+04
3.023294684405776334e-08	3.189107271849308381e+04	6.324856783144793735e+04
3.122442823092858392e-08	3.273895240699982969e+04	6.502099472066962335e+04
3.224842498408442807e-08	3.358510366271790554e+04	6.680453110711705813e+04
3.330600343624588813e-08	3.443958306164041278e+04	6.861564093809967744e+04
3.439826489022924478e-08	3.532208488338084862e+04	7.048614563046513649e+04
3.552634676578139226e-08	3.623352811578325054e+04	7.241799302276987873e+04
3.669142378402493899e-08	3.717486188465166197e+04	7.441319483241363196e+04
3.789470919074667737e-08	3.814706644211634557e+04	7.647382875052881718e+04
3.913745601980383687e-08	3.915115418741345638e+04	7.860204060557167395e+04
4.042095839796305955e-08	4.015978194960991095e+04	8.075424165253604588e+04
4.174655289253134782e-08	4.116913975431238214e+04	8.292483103210998524e+04
4.311561990318228626e-08	4.221159917763039994e+04	8.516660430849323166e+04
4.452958509942655287e-08	4.328824577827246685e+04	8.748189593849844823e+04
4.598992090522439315e-08	4.440020071555407048e+04	8.987311693682392070e+04
4.749814803228499868e-08	4.554862191690975305e+04	9.234275738674841705e+04
4.905583706365045989e-08	4.673470528369394742e+04	9.489338903316439246e+04
5.066461008921269181e-08	4.793470084046793636e+04	9.748675614331937686e+04
5.232614239486661694e-08	4.912380649093062675e+04	1.000829009703215706e+05
5.404216420705915059e-08	5.035190854242355999e+04	1.027641856709480926e+05
5.581446249454960394e-08	5.162028587146431528e+04	1.055334023845300399e+05
5.764488282925879445e-08	5.293025929498307960e+04	1.083934348178594955e+05
5.953533130814369715e-08	5.428319294574705418e+04	1.113472612481193792e+05
6.148777653810024108e-08	5.568049569289195642e+04	1.143979576242947805e+05
6.350425168595962148e-08	5.710525998058615369e+04	1.175181423000658979e+05
6.558685659571428548e-08	5.850210190603377123e+04	1.206164273545319156e+05
6.773775997517751128e-08	5.994475288795963570e+04	1.238163198367677542e+05
6.995920165435375620e-08	6.143471522209034447e+04	1.271211519351278985e+05
7.225349491787214948e-08	6.297354047153819556e+04	1.305343651161909074e+05
7.462302891391107044e-08	6.456283108251179510e+04	1.340595137085090682e+05
7.707027114212294845e-08	6.620424205301357142e+04	1.377002686038867978e+05
7.959777002314985573e-08	6.789221581908944063e+04	1.414481118112536205e+05
8.220815755240541849e-08	6.952804889192599512e+04	1.451367751819558907e+05
8.490415204088747078e-08	7.121752867185036303e+04	1.489464072790395294e+05
8.768856094587425811e-08	7.296241448823982500e+04	1.528809752394568932e+05
9.056428379445295063e-08	7.476452336720706080e+04	1.569445763013531687e+05
9.353431520292386860e-08	7.662573192374869541e+04	1.611414420706997334e+05
9.660174799522647250e-08	7.854797831594738818e+04	1.654759429278518946e+05
9.976977642363202159e-08	8.053326426326039655e+04	1.699525925786167791e+05
1.030416994950587396e-07	8.245260600396251539e+04	1.743497354915670003e+05
1.064209244064724761e-07	8.442464760153394309e+04	1.788733900059682783e+05
1.099109700929497372e-07	8.646136177463065542e+04	1.835453965574631293e+05
1.135154708920999096e-07	8.856486944302960183e+04	1.883706203113378433e+05
1.172381803286598596e-07	9.073736108150317159e+04	1.933540859846698586e+05
1.210829750232039531e-07	9.298109900085664412e+04	1.985009830787860847e+05
1.250538587290391570e-07	9.529841970377178222e+04	2.038166712833184283e+05
1.291549665014884007e-07	9.755460465247798129e+04	2.090648411593918863e+05
1.333905690039058854e-07	9.984837159239515313e+04	2.144209126006410515e+05
1.377650769549053468e-07	1.022173620041914401e+05	2.199526349689446215e+05
1.422830457214352017e-07	1.046640428214611893e+05	2.256657686893668724e+05
1.469491800624817218e-07	1.071909618802245823e+05	2.315662630985676369e+05
1.517683390283405561e-07	1.098007505721009511e+05	2.376602626401072484e+05
1.567455410205594968e-07	1.124961265844925074e+05	2.439541132629259082e+05
1.618859690178197646e-07	1.151409759394367138e+05	2.502037295433235122e+05
1.671949759731990056e-07	1.177989041268520086e+05	2.565254067668694479e+05
1.726780903884356132e-07	1.205439983566333394e+05	2.630544017002395121e+05
1.783410220710008120e-07	1.233791172157725814e+05	2.697975132721495465e+05
1.841896680799711039e-07	1.263072130378557049e+05	2.767617633803600329e+05
1.902301188668944219e-07	1.293313349774570088e+05	2.839544042038858170e+05
1.964686646180446931e-07	1.324546321853578556e+05	2.913829257550086477e+05
2.029118018046678038e-07	1.355460173050237063e+05	2.988066646982313250e+05
2.095662399480432992e-07	1.386134802302611934e+05	3.062421728884517215e+05
2.164389086064020114e-07	1.417815397798031627e+05	3.139215265764514916e+05
2.235369645909794139e-07	1.450534949929756403e+05	3.218527226099601248e+05
2.308677994187169850e-07	1.484327531002150208e+05	3.300440200911844731e+05
2.384390470093720426e-07	1.519228330711661547e+05	3.385039489773737732e+05
2.462585916350547006e-07	1.555273692791403446e+05	3.472413189634390292e+05
2.543345761304648365e-07	1.591293908655123960e+05	3.560360404289274593e+05
2.626754103723835758e-07	1.626541458400366246e+05	3.647482384911773843e+05
2.712897800372467241e-07	1.662944942090304976e+05	3.737461507533038966e+05
2.801866556459195443e-07	1.700542268268770131e+05	3.830391471358967829e+05
2.893753019050950594e-07	1.739372588680127519e+05	3.926369048435806762e+05
2.988652873550382326e-07	1.779476339039702143e+05	4.025494184423109982e+05
3.086664943337274455e-07	1.820895281141265004e+05	4.127870102671550703e+05
3.187891292677645596e-07	1.862725265018397768e+05	4.231753664907907369e+05
3.292437333007768907e-07	1.903038922550391289e+05	4.333404439121695468e+05
3.400411932703706463e-07	1.944674655673819070e+05	4.438388823225179221e+05
3.511927530450727317e-07	1.987675821503278275e+05	4.546816142061011051e+05
3.627100252330649086e-07	2.032087199038318940e+05	4.658799305750760832e+05
3.746050032748993774e-07	2.077955035793770803e+05	4.774454927273146459e+05
3.868900739327976195e-07	2.125327095959320141e+05	4.893903443898279220e+05
3.995780301895269929e-07	2.173730445875880541e+05	5.016218432970395079e+05
4.126820845702951630e-07	2.219607649827408604e+05	5.134268195592790144e+05
4.262158829015325345e-07	2.266989384383719880e+05	5.256189368533486268e+05
4.401935185208874400e-07	2.315924990222658671e+05	5.382108913656012155e+05
4.546295469532399562e-07	2.366465426136377209e+05	5.512157956504188478e+05
4.695390010680058238e-07	2.418663322096952761e+05	5.646471922848887043e+05
4.849374067335232931e-07	2.472573034062288643e+05	5.785190679712831043e+05
5.008407989848212921e-07	2.528250700579358090e+05	5.928458681020261720e+05
5.172657387216018967e-07	2.580295742494268052e+05	6.065089756851535058e+05
