# Frequency (Hz)	Imaginary Part (Ohm/m)
1000.0	17468763.90925731
1018.6101701559753	17386205.377390172
1037.566678745186	17302110.417197153
1056.875971184804	17216450.435485687
1076.5446128423157	17129196.30693901
1096.5792912678098	17040318.364213273
1116.9868184678226	16949786.387850296
1137.7741332214914	16857569.59600264
1158.9483034398106	16763636.633967467
1180.5165285688054	16667955.563525561
1202.4861420374123	16570493.852082029
1224.8646137509306	16471218.361604841
1247.6595526308697	16370095.337357549
1270.8787092020582	16277863.73847972
1294.529978227916	16194258.417369766
1318.6214013947485	16109097.187008012
1343.1611700460153	16022351.091658534
1368.1576279674719	15933990.636714235
1393.619274224142	15843985.778668365
1419.5547660501015	15752305.914899388
1445.9729217920194	15658919.873265805
1472.882723907502	15563795.901507225
1500.2933220192183	15466901.6564483
1528.2140360258693	15368204.193001699
1556.654359271062	15267669.952966392
1585.6239617711371	15165815.754785981
1615.132693503091	15083754.330814935
1645.1905877536624	15000165.729780553
1675.807864530767	14915021.530657819
1706.9949340384078	14828292.783501612
1738.7624002162504	14739949.999603417
1771.1210643450886	14649963.141464822
1804.0819287193826	14558301.61258447
1837.6562003881704	14464934.247054897
1871.8552949655793	14369829.298965797
1906.690840512252	14272954.43161009
1942.1746814890264	14174276.706489053
1978.3188827841643	14073762.57211291
2015.1357338155585	13983695.236871094
2052.6377527092523	13902648.56250689
2090.8376905557498	13820093.595742192
2129.748535745521	13736002.266998779
2169.3835183851843	13650345.984318811
2209.756114795903	13563095.623643238
2250.880052095462	13474221.518909328
2292.7693128656488	13383693.451963859
2335.438139906479	13291480.642288638
2378.9010410788933	13197551.736534804
2423.1727942376006	13101874.797862323
2468.2684522556924	13004417.29508115
2514.2033481427966	12906306.819835557
2560.9931002584594	12828628.86397983
2608.6536176225477	12749505.308148265
2657.2011053245064	12668909.249479325
2706.652070033241	12586813.284444656
2757.0233256095826	12503189.499531576
2808.3319988231724	12418009.461752173
2860.5955351757416	12331244.208975805
2913.831704832789	12242864.240081638
2968.0586086656026	12152839.504927978
3023.2946844057765	12061139.394134859
3079.5587129142264	11967732.728676556
3136.8698245668766	11872587.749280373
3195.2475057592133	11788812.007434802
3254.711605531848	11713791.748904005
3315.282342319423	11637375.350596802
3376.9803108250912	11559536.830114393
3439.8264890229243	11480249.721521122
3503.8422452906757	11399487.066345748
3569.0493456752292	11317221.404415319
3635.4699612933177	11233424.764518367
3703.126675869927	11148068.654894432
3772.0424934169973	11061124.053546548
3842.240846055061	10972561.39837343
3913.745601980384	10882350.577118082
3986.581073580439	10792181.781995459
4060.7720257003657	10721755.787733234
4136.343684063274	10650019.153734388
4213.321743847289	10576947.488770405
4291.732378422157	10502515.947687866
4371.602248248501	10426699.22296081
4452.958509942655	10349471.536085906
4535.828825510186	10270806.628817514
4620.241371751313	10190677.75423955
4706.224849841281	10109057.667671287
4793.808495089106	10025918.617403843
4883.02208687788	9941232.335264312
4973.895958790063	9854970.027004292
5066.461008921268	9780282.203252975
5160.7487103859075	9713544.047201514
5256.791122018419	9645563.882710041
5354.620899273607	9576318.595790144
5454.271305329836	9505784.64229817
5555.7762223988775	9433938.03992994
5659.170163246242	9360754.360066509
5764.488282925873	9286208.719468178
5871.766390733255	9210275.771813923
5981.040962380945	9132929.699083377
6092.349152400711	9054144.202778423
6205.7288067765	8973892.494981412
6321.218475812449	8894293.219364382
6438.8574272404185	8832705.054846145
6558.685659571435	8769970.724106628
6680.743915695614	8706068.896797433
6805.073696735206	8640977.845608734
6931.717276155407	8574675.43888178
7060.717714137772	8507139.133083887
7192.118872221193	8438345.965143388
7325.96542821523	8368272.544641952
7462.302891391108	8296895.045861571
7601.17761795533	8224189.199683577
7742.636826811269	8150130.28533688
7886.728615614156	8074693.12199262
8033.501977124735	8010397.44897687
8183.00681586739	7952915.589146148
8335.293965098195	7894363.982123095
8490.415204088747	7834722.719730438
8648.423275731726	7773971.523296334
8809.37190447399	7712089.736759415
8973.31581458352	7649056.319645489
9140.310748756232	7584849.839913556
9310.413487069076	7519448.4666687
9483.681866285926	7452829.962739319
9660.174799522645	7384971.677116278
9839.952296278227	7315850.537251299
10023.075482838643	7247839.832883401
10209.606623060476	7195496.556143315
10399.609139541202	7142179.162116581
10593.1476351837	7087869.522314737
10790.287915161836	7032549.17087507
10991.097009294961	6976199.298282022
11195.643194838794	6918800.744971744
11403.99601970033	6860333.994817661
11616.22632608502	6800779.168494744
11832.40627458378	6740116.016720348
12052.609368708414	6678323.913369233
12276.910479883603	6615381.848460451
12505.385872903913	6551268.421013755
12738.113231864783	6497408.55674745
12975.171686575868	6449115.5323763285
13216.641839466038	6399923.766604313
13462.60579298911	6349816.5337010035
13713.147177539455	6298776.796667323
13968.351179887397	6246787.20144273
14228.30457214352	6193830.071004667
14493.09574126215	6139887.399358179
14762.81471909391	6084940.845413676
15037.553212997384	6028971.726750788
15317.404637020798	5971961.013266102
15602.46414366368	5913889.320702755
15892.828656229764	5857216.704156668
16188.596901781993	5813671.886563856
16489.86944471065	5769316.692506237
16796.74872092653	5724136.040739905
17109.339072690134	5678114.569356443
17427.746784089173	5631236.630559707
17752.08011717636	5583486.285345396
18082.44934877952	5534847.298081646
18418.96680799711	5485303.130988703
18761.746914391195	5434836.938515925
19110.90621689136	5383431.561614104
19466.56343342263	5331069.521901202
19828.83949127071	5277733.015719536
20197.857568198782	5233514.724670614
20573.743134329114	5193671.997614569
20956.623994804308	5153087.790628532
21346.630333242454	5111748.304644835
21743.8947560008	5069639.483792826
22148.55233726359	5026747.010619693
22560.74066496859	4983056.301222398
22980.599887588487	4938552.500288984
23408.272761782944	4893220.476047606
23843.904700937208	4847044.8151215855
24287.643824604504	4800009.817288669
24739.64100886812	4752099.490142794
25200.049937640895	4705726.913274678
25669.027154919517	4670050.258663049
26146.732118010917	4633709.655438505
26633.327251749808	4596692.747404381
27128.978003724646	4558986.948413094
27633.852900531667	4520579.438086712
28148.123605075813	4481457.1574578835
28671.964974937695	4441606.804529669
29205.55512182745	4401014.829752684
29749.075472144435	4359667.431418126
30302.71082866393	4317550.550965067
30866.649433372742	4274649.868200326
31441.08303147265	4230950.796429532
32026.206936576502	4195159.755892287
32622.220097116733	4162703.551483224
33229.325163989684	4129643.3315874995
33847.72855945983	4095967.8553741146
34477.640547344636	4061665.6728183185
35119.275304507275	4026725.120808437
35772.850993678774	3991134.319180304
36438.58983763541	3954881.1666778927
37116.71819475767	3917953.336838713
37807.466635993485	3880338.2738027386
38511.070023255685	3842023.188043237
39227.76758927723	3802995.052018206
39957.803018952654	3765528.90578045
40701.42453219439	3736603.6094384207
41458.88496832911	3707140.008409658
42230.441872066716	3677128.084752342
43016.35758106799	3646557.6340890517
43816.89931514194	3615418.2621371765
44632.33926710397	3583699.381174727
45462.95469532399	3551390.2064404087
46309.02801799736	3518479.7524666856
47170.84690917023	3484956.829344597
48048.704396551344	3450810.038919085
48942.89896114532	3416027.7709134733
49853.73463873894	3380598.198981867
50781.5211232767	3351906.85455165
51726.57387216024	3325694.176858052
52689.21421350677	3298993.676772336
53669.76945540476	3271796.2758367746
54668.57299720181	3244092.726642003
55685.96444286408	3215873.609682792
56722.28971644549	3187129.330155315
57777.90117970507	3157850.1146948235
58853.1577519145	3128026.0080525805
59948.42503189408	3097646.869710974
61064.07542232036	3066702.370435639
62200.48825634718	3035181.9887633943
63358.04992658254	3005169.991040245
64537.15401646702	2981882.411106877
65738.20143409586	2958161.4453484286
66961.60054853215	2933999.028380951
68207.76732865692	2909386.944722326
69477.1254846024	2884316.8259989237
70770.10661181889	2858780.1481002485
72087.15033782135	2832768.2282806607
73428.70447166759	2806272.222207146
74795.22515621828	2779283.1209521475
76187.17702322999	2751791.7479304397
77605.0333513357	2723788.755778976
79049.2762269642	2695264.623178697
80520.39670825469	2672411.9922263343
82018.8949920221	2651362.1152373175
83545.28058382872	2629920.496455774
85100.07247122246	2608079.845500287
86683.79930019773	2585832.7363142017
88296.99955494082	2563171.604640684
89940.22174092053	2540088.7454507933
91614.0245713852	2516576.3103236943
93318.9771573324	2492626.304778099
95055.65920101192	2468230.585554063
96824.66119303115	2443380.857844191
98626.5846131283	2418068.6724733054
100462.04213468132	2394163.804460167
102331.65783302448	2375501.441157592
104236.06739764012	2356491.7680984437
106175.9183482999	2337128.3217890547
108151.87025522892	2317404.51844904
110164.59496336569	2297313.651772747
112214.77682079801	2276848.8906490267
114303.11291144785	2256003.2768385927
116430.31329208757	2234769.7226081407
118597.10123376705	2213141.008320442
120804.21346773289	2191109.779979596
123052.40043592616	2168668.5467305817
125342.42654613995	2145809.6783122937
127675.07043192645	2127684.2231739643
130051.12521734099	2110843.166185437
132471.39878661174	2093688.6942607483
134936.71405883064	2076214.9746946052
137447.90926775365	2058416.0662340787
140005.8382468096	2040285.917058511
142611.37071941295	2021818.362721831
145265.39259467812	2003007.124056582
147968.80626863963	1983845.805038929
150722.53093107554	1964327.890613944
153527.5028780421	1944446.7444804201
156384.67583022476	1924195.6068344538
159295.0212572123	1905225.7313060826
162259.5287078087	1890314.796690987
165279.2061464897	1875126.367045518
168355.08029612005	1859655.2781399486
171488.19698705408	1843896.2696373446
174679.62151272455	1827843.9833050196
177930.43899185772	1811492.961192657
181241.75473742394	1794837.6437765579
184614.69463245454	1777872.368069347
188050.40551285836	1760591.365694478
191550.0555573528	1742988.7609249488
195114.83468466165	1725058.5686854704
198745.9549580986	1706794.692517484
202444.65099768018	1692458.1120660154
206212.18039991445	1679016.8439360254
210049.8241653915	1665325.4315190252
213958.88713434213	1651379.2195872692
217940.6984302958	1637173.4662784305
221996.61191199525	1622703.3414833236
226128.00663372793	1607963.9252035983
230336.2873142131	1592950.2058789092
234622.88481422624	1577657.0786829134
238989.25662310526	1562079.3437875817
243436.8873543108	1546211.7045952065
247967.289250216	1530048.7659374843
252582.00269627848	1515031.456122696
257282.59674479323	1503140.9392407015
262070.66964838552	1491029.1378162892
266947.8494034318	1478691.9337064761
271915.7943036019	1466125.1321289274
276976.1935036891	1453324.4602357056
282130.76759394706	1440285.56566044
287381.2691851069	1427004.0150384817
292729.4835042813	1413475.2924995162
298177.22900196735	1399694.7981321046
303726.3579703311	1385657.846419684
309378.75717301364	1371359.6646474234
315136.34848664823	1356795.3912794588
321001.08955431683	1345476.0298703765
326974.97445117676	1334764.8954186498
333060.03436245886	1323854.424932214
339258.33827409917	1312740.9087335442
345571.9936762143	1301420.5681073845
352003.1472796675	1289889.554015951
358553.9857459817	1278143.9457902024
365226.7364308175	1266179.7497967884
372023.6681413066	1253992.8980801573
378947.09190746717	1241579.2469794133
385999.36176797637	1228934.5757194299
393182.87557057705	1216054.5849757292
400500.07578736113	1204184.9788880327
407953.45034524484	1194714.8660272511
415545.53347188793	1185068.5127547323
423278.90655735444	1175242.6392064297
431156.19903182285	1165233.90447946
439180.0892596086	1155038.9054961766
447353.3054498463	1144654.1758470742
455678.6265841068	1134076.1846121768
464158.8833612772	1123301.3351604922
472796.9591600391	1112325.9639271041
481595.79101923504	1101146.339167539
490558.37063650455	1089758.6596889186
499687.7453854889	1078159.0535575177
508987.0193519675	1069232.4453903844
518459.3543892913	1060705.4247349538
528107.971193433	1052019.714774203
537936.1503980698	1043172.3622731573
547947.2336900292	1034160.3590366363
558144.6249454955	1024980.6408864395
568531.7913873753	1015630.0866194814
579112.2647641759	1006105.5169465637
589889.6425508494	996403.6934113705
600867.5891719692	986521.317289363
612049.837247669	976455.0284661818
623440.1888627863	966201.4042951599
635042.5168595961	956829.366460355
646860.7661546321	949292.9832093236
658898.9550799957	941616.346583629
671161.1767496272	933796.8464441065
683651.6004510238	925831.8240764511
696374.4730628222	917718.5712872382
709334.1204987989	909454.3294830996
722534.9491787221	901036.2887327751
735981.4475265755	892461.586811709
749678.1874966878	883727.3082288529
763629.8261282243	874830.4832353813
777841.1071286482	865768.0868149332
792316.8624866261	856537.0376550788
807062.0141149492	849502.8915441156
822081.575524054	842718.9504477944
837380.6535266489	835808.7590533433
852964.4499741016	828769.9678212311
868838.2635251193	821600.1834865961
885007.4914473438	814296.9682455126
901477.6314524917	806857.8389261069
918254.2835656281	799280.2661442547
935343.1520292377	791561.6734435629
952750.0472427299	783699.4364193459
970480.8877380306	775690.8818263025
988541.7021919573	767533.286669579
1006938.6314760271	760138.2987173327
1025677.9307444209	754143.8458693215
1044765.9715608053	748037.8352338162
1064209.2440647245	741818.1907014108
1084014.359178331	735482.7975259473
1104188.0508541602	729029.5016054837
1124737.1783647507	722456.1087498735
1145668.7286348727	715760.3839347173
1166989.8186171474	708940.0505414343
1188707.6977119034	701992.7895831818
1210829.7502320393	694916.2389163785
1233363.4979137746	687707.9924375484
1256316.6024741214	680365.5992652202
1279696.8682159416	674825.641079449
1303512.2446815087	669430.6556890915
1327770.829355429	663935.2687026305
1352480.8704178738	658337.6116292785
1377650.769549055	652635.7812053158
1403289.084785873	646827.8387469637
1429404.533431761	640911.8094912053
1456005.9950206485	634885.6819243495
1483102.514336103	628747.4070980928
1510703.3044866556	622494.8979328548
1538817.7500383465	616126.0285081506
1567455.410205595	609638.6333397515
1596626.022101425	603806.2803018362
1626339.5040481905	599039.8276302872
1656605.9589499151	594184.6704634797
1687435.6777273756	589239.1579956644
1718839.1428171454	584201.6086993146
1750827.0317357269	579070.3097533899
1783410.220710006	573843.5164609618
1816599.7883753285	568519.4516559901
1850407.019542302	563096.305099077
1884843.4090337954	557572.2328619591
1919920.6655932867	551945.3567005539
1955650.715865947	546213.7634163396
1992045.7084538713	540375.5042058399
2029118.0180466783	536013.9490051166
2066880.2496290822	531724.6508518511
2105345.242766708	527355.5281301033
2144526.0759716653	522905.0952910722
2184436.0711494284	518371.8391396381
2225088.7981283693	513754.2183198657
2266498.079273693	509050.6627909215
2308677.994187172	504259.5732932451
2351642.884494346	499379.32080478553
2395407.358720879	494408.2459871105
2439986.29725955	489344.65862122097
2485394.857429798	484186.8370328526
2531648.478631358	479588.351371963
2578762.8875937983	475799.11552747776
2626754.1037238385	471939.36135916476
2675638.4445520453	468007.77650901966
2725432.531281028	464003.0241958307
2776153.2944368036	459923.74276066024
2827817.979625338	455768.54520386807
2880444.1533962977	451536.0187135114
2934049.709215787	447224.72418498
2988652.873550383	442833.1957316801
3044272.2120643063	438359.94018661894
3100926.6359319235	433803.4365947141
3158635.408267819	429162.1356956466
3217418.1506763715	425729.2448882009
3277294.849923382	422319.5848506142
3338285.8647317644	418846.4704595537
3400411.9327037027	415308.7208187051
3463694.1773717343	411705.13305507024
3528154.1153808828	408034.48190998257
3593813.6638046256	404295.5193225016
3660695.147596906	400486.9740050604
3728821.30718283	396607.55101121566
3798215.306190736	392655.9312953476
3868900.7393279755	388630.771264176
3940901.6404034477	384530.70231991925
4014242.490499326	380905.85521254956
4088948.226294856	377893.8796151289
4165044.248545185	374825.8506393339
4242556.430717777	371700.72512225615
4321511.127789762	368517.4404875469
4401935.1852088785	365274.91438413045
4483855.948021181	361972.0443181949
4567301.270168747	358607.7072783284
4652299.523960189	355180.75935368845
4738879.609717651	351690.0353450553
4827070.965603188	348134.34836865345
4916903.577628021	344512.4894526002
5008407.989848212	340823.2271258374
5101615.314749833	338121.8212318609
5196557.243827657	335411.6853673025
5293266.058360566	332651.1134131585
5391774.640387494	329839.1667452207
5492116.483887789	326974.8892713225
5594325.706169377	324057.30710626143
5698437.0594691355	321085.4282406645
5804485.942768984	318058.2422036955
5912508.413831869	314974.71971948544
6022541.201461928	311833.8123571638
6134621.717992506	308634.4521743855
6248788.072006888	305375.5513542155
6365079.081295578	302518.6644096976
6483534.286054714	300124.7108413282
6604193.962330305	297686.2053897054
6727099.135712336	295202.31893670186
6852291.595284057	292672.2069341599
6979813.907830667	290095.0091167366
7109709.432312423	287469.849209406
7242022.334607315	284795.8346295128
7376797.60252773	282072.0561832886
7514081.061116962	279297.5877567128
7653919.388230155	276471.4860006259
7796360.130405221	273592.7900099807
7941451.71902934	270660.5209971215
8089243.486805938	268535.0846497179
8239785.684528512	266381.09825991094
8393129.498166373	264187.02581687586
8549327.066268368	261952.12131234174
8708431.497690724	259675.62485469543
8870496.889654402	257356.76241061313
9035578.34613892	254994.7455418781
9203731.99661823	252588.7711373044
9375015.01514529	250138.0211396709
9549485.639791967	247641.66226757172
9727203.192450536	245098.8457320924
9908228.099003786	242508.70694821238
10092621.909870483	240257.36988947538
10280447.320933098	238354.7242246045
10471768.194855202	236416.6700001639
10666649.582795387	234442.54825683494
10865157.746525371	232431.68777195402
11067360.180959744	230383.40483128928
11273325.63710487	228297.00299657145
11483124.14543511	226171.77286869579
11696827.039703846	224006.99184651973
11914506.981197748	221801.9238811705
12136237.983442418	219555.8192257805
12362095.437367693	217267.9141805657
12592156.13694151	214946.0156740381
12826498.3052806	213265.3954797157
13065201.621247198	211553.49865760937
13308347.24654076	209809.743144354
13556017.853293689	208033.5360442867
13808297.652180923	206224.2734278549
14065272.421052363	204381.3401262745
14327029.534098294	202504.10952236553
14593657.991557576	200591.94333749558
14865248.449978571	198644.19141455894
15141893.25304352	196660.19149691483
15423686.462966273	194639.26900321394
15710723.892474487	192580.73679803318
16003103.137387017	190806.78476120578
16300923.609797413	189294.66310145461
16604286.571875297	187754.40060031894
16913295.17029647	186185.47355195228
17228054.471313924	184587.3485042532
17548671.49648152	182959.48207748574
17875255.259042352	181301.32077952515
18207916.800994623	179612.3008176634
18546769.230846975	177891.8479069146
18891927.762076646	176139.37707475136
19243509.75230332	174354.29246220808
19601634.743191857	172535.9871212827
19966424.501097932	170704.30686932046
20338003.0584698	169368.6528376149
20716496.75602067	168008.14205710983
21102034.285685964	166622.31193948034
21494746.734379806	165210.69128755465
21894767.628566206	163772.80013510096
