# Frequency (Hz)	Real Part (Ohm)
1000.0	0.0012109844797999999
1018.6101701559753	0.001227796243527057
1037.566678745186	0.0012449208770376975
1056.875971184804	0.0012623642028918287
1076.5446128423157	0.0012801321520081925
1096.5792912678098	0.0012982307656809336
1116.9868184678226	0.0013166661976337119
1137.7741332214914	0.0013354447161120309
1158.9483034398106	0.0013545727060145076
1180.5165285688054	0.0013740566710638122
1202.4861420374123	0.0013939032360179965
1224.8646137509306	0.00141411914892299
1247.6595526308697	0.0014347112834070049
1270.8787092020582	0.0014549579790318664
1294.529978227916	0.0014748819322862505
1318.6214013947485	0.0014951766737008776
1343.1611700460153	0.0015158491037065025
1368.1576279674719	0.0015369062511520703
1393.619274224142	0.0015583552756945984
1419.5547660501015	0.0015802034702335445
1445.9729217920194	0.0016024582633904591
1472.882723907502	0.001625127222034811
1500.2933220192183	0.0016482180538567935
1528.2140360258693	0.0016717386099880248
1556.654359271062	0.0016956968876710233
1585.6239617711371	0.0017200578897652986
1615.132693503091	0.0017431740675309625
1645.1905877536624	0.0017667204412981999
1675.807864530767	0.0017907050170878017
1706.9949340384078	0.0018151359499139685
1738.7624002162504	0.0018400215465570976
1771.1210643450886	0.0018653702683881905
1804.0819287193826	0.001891190734245794
1837.6562003881704	0.0019174917233665146
1871.8552949655793	0.001944282178370044
1906.690840512252	0.0019715712082997434
1942.1746814890264	0.0019993680917198275
1978.3188827841643	0.0020276822798701638
2015.1357338155585	0.0020553929743497225
2052.6377527092523	0.0020826376701532784
2090.8376905557498	0.002110389394381586
2129.748535745521	0.0021386575829199063
2169.3835183851843	0.0021674518472569243
2209.756114795903	0.002196781977752771
2250.880052095462	0.002226657946967842
2292.7693128656488	0.0022570899130535792
2335.438139906479	0.0022880882232063546
2378.9010410788933	0.00231966341718562
2423.1727942376006	0.002351826230897548
2468.2684522556924	0.00238458760004535
2514.2033481427966	0.0024178323300224195
2560.9931002584594	0.002449273145745919
2608.6536176225477	0.002481299080399873
2657.2011053245064	0.0025139210231471436
2706.652070033241	0.0025471500657997578
2757.0233256095826	0.0025809975065902565
2808.3319988231724	0.002615474854013213
2860.5955351757416	0.0026505938307382353
2913.831704832789	0.0026863663775958165
2968.0586086656026	0.0027228046576373275
3023.2946844057765	0.002759921060270602
3079.5587129142264	0.0027977282054724617
3136.8698245668766	0.0028362389480796374
3195.2475057592133	0.002873751492981468
3254.711605531848	0.002910615998497152
3315.282342319423	0.0029481665587331994
3376.9803108250912	0.002986415941284693
3439.8264890229243	0.003025377151353829
3503.8422452906757	0.003065063436171837
3569.0493456752292	0.003105488289503164
3635.4699612933177	0.003146665456233518
3703.126675869927	0.0031886089370432667
3772.0424934169973	0.0032313329931678157
3842.240846055061	0.0032748521512465994
3913.745601980384	0.0033191812082622708
3986.581073580439	0.0033640631651496076
4060.7720257003657	0.0034063937118780324
4136.343684063274	0.003449512037283867
4213.321743847289	0.0034934328020623474
4291.732378422157	0.0035381709397467325
4371.602248248501	0.0035837416617858857
4452.958509942655	0.0036301604627163213
4535.828825510186	0.0036774431254305066
4620.241371751313	0.003725605726543232
4706.224849841281	0.003774664641857818
4793.808495089106	0.0038246365519340746
4883.02208687788	0.003875538447759874
4973.895958790063	0.0039273876365282494
5066.461008921268	0.003977653777969975
5160.7487103859075	0.004027049815075825
5256.791122018419	0.004077365120837246
5354.620899273607	0.004128616803000339
5454.271305329836	0.004180822287689269
5555.7762223988775	0.004233999325331331
5659.170163246242	0.004288165996692303
5764.488282925873	0.004343340719024085
5871.766390733255	0.004399542252326773
5981.040962380945	0.004456789705727253
6092.349152400711	0.004515102543976506
6205.7288067765	0.004574500594067858
6321.218475812449	0.004634492490621372
6438.8574272404185	0.004690954100222174
6558.685659571435	0.004748466469984929
6680.743915695614	0.004807049154735038
6805.073696735206	0.004866722073216542
6931.717276155407	0.004927505514864692
7060.717714137772	0.004989420146704579
7192.118872221193	0.005052487020378151
7325.96542821523	0.005116727579301993
7462.302891391108	0.005182163665958321
7601.17761795533	0.005248817529321669
7742.636826811269	0.0053167118324237575
7886.728615614156	0.0053858696600592015
8033.501977124735	0.0054525992209720564
8183.00681586739	0.005518198367465336
8335.293965098195	0.005585018325236946
8490.415204088747	0.005653081813792496
8648.423275731726	0.0057224119754514784
8809.37190447399	0.005793032383215872
8973.31581458352	0.005864967048785246
9140.310748756232	0.005938240430720984
9310.413487069076	0.006012877442762445
9483.681866285926	0.006088903462297933
9660.174799522645	0.006166344338993257
9839.952296278227	0.006245226403580908
10023.075482838643	0.006324688965106749
10209.606623060476	0.006399360147740371
10399.609139541202	0.006475420973788545
10593.1476351837	0.006552897304751681
10790.287915161836	0.006631815483417099
10991.097009294961	0.006712202342815882
11195.643194838794	0.006794085215346389
11403.99601970033	0.006877491942067541
11616.22632608502	0.006962450882165125
11832.40627458378	0.007048990922594195
12052.609368708414	0.007137141487900959
12276.910479883603	0.007226932550227434
12505.385872903913	0.007318394639502282
12738.113231864783	0.007406229895704097
12975.171686575868	0.007492641535820402
13216.641839466038	0.007580661311262729
13462.60579298911	0.007670319149703138
13713.147177539455	0.0077616455357727284
13968.351179887397	0.007854671521426805
14228.30457214352	0.007949428736502832
14493.09574126215	0.008045949399474929
14762.81471909391	0.008144266328408518
15037.553212997384	0.008244412952118758
15317.404637020798	0.008346423321536796
15602.46414366368	0.008450332121287376
15892.828656229764	0.008554716638194751
16188.596901781993	0.00865270491974963
16489.86944471065	0.008752516779897523
16796.74872092653	0.008854186155746353
17109.339072690134	0.008957747615979382
17427.746784089173	0.009063236372608948
17752.08011717636	0.009170688292948948
18082.44934877952	0.009280139911810046
18418.96680799711	0.009391628443921997
18761.746914391195	0.009505191796586994
19110.90621689136	0.009620868582568567
19466.56343342263	0.009738698133220366
19828.83949127071	0.009858720511859183
20197.857568198782	0.009973440907729928
20573.743134329114	0.010086421832656753
20956.623994804308	0.010201505351820845
21346.630333242454	0.010318730594858742
21743.8947560008	0.010438137419616135
22148.55233726359	0.01055976642570005
22560.74066496859	0.010683658968283088
22980.599887588487	0.010809857172164655
23408.272761782944	0.010938403946093847
23843.904700937208	0.01106934299735885
24287.643824604504	0.011202718846647957
24739.64100886812	0.011338576843187034
25200.049937640895	0.011474661596744814
25669.027154919517	0.011602327992793324
26146.732118010917	0.011732370282195478
26633.327251749808	0.011864832680730882
27128.978003724646	0.011999760227042296
27633.852900531667	0.012137198797949294
28148.123605075813	0.012277195124046882
28671.964974937695	0.012419796805594342
29205.55512182745	0.01256505232869993
29749.075472144435	0.012713011081806622
30302.71082866393	0.01286372337248466
30866.649433372742	0.013017240444536851
31441.08303147265	0.013173614495421763
32026.206936576502	0.013322374279816116
32622.220097116733	0.013469074401497616
33229.325163989684	0.013618504637405476
33847.72855945983	0.01377071579543006
34477.640547344636	0.013925759629005108
35119.275304507275	0.01408368885470462
35772.850993678774	0.014244557170167019
36438.58983763541	0.014408419272352842
37116.71819475767	0.014575330876142495
37807.466635993485	0.014745348733279663
38511.070023255685	0.014918530651667709
39227.76758927723	0.01509493551502491
39957.803018952654	0.015271101266259916
40701.42453219439	0.015436326732149987
41458.88496832911	0.015604627072074353
42230.441872066716	0.015776059509962023
43016.35758106799	0.01595068233468905
43816.89931514194	0.01612855491989735
44632.33926710397	0.016309737744182456
45462.95469532399	0.016494292411656855
46309.02801799736	0.016682281672896024
47170.84690917023	0.01687376944627438
48048.704396551344	0.017068820839698066
48942.89896114532	0.017267502172742533
49853.73463873894	0.01746988099920177
50781.5211232767	0.017661493979304964
51726.57387216024	0.017850754781633938
52689.21421350677	0.018043537759698088
53669.76945540476	0.018239908461787187
54668.57299720181	0.01843993365605581
55685.96444286408	0.01864368135322526
56722.28971644549	0.01885122082970794
57777.90117970507	0.01906262265116202
58853.1577519145	0.019277958696484652
59948.42503189408	0.019497302182251444
61064.07542232036	0.019720727687610965
62200.48825634718	0.019948311179642436
63358.04992658254	0.02017487665360927
64537.15401646702	0.020387395817564814
65738.20143409586	0.020603869999322975
66961.60054853215	0.02082437280243803
68207.76732865692	0.02104897920023895
69477.1254846024	0.02127776556132104
70770.10661181889	0.021510809675512235
72087.15033782135	0.02174819078032238
73428.70447166759	0.021989989587884857
74795.22515621828	0.0222362883123996
76187.17702322999	0.022487170698086742
77605.0333513357	0.02274272204766066
79049.2762269642	0.023003029251333733
80520.39670825469	0.023248334428274873
82018.8949920221	0.02349107542711347
83545.28058382872	0.023738333877244278
85100.07247122246	0.02399019384920451
86683.79930019773	0.024246740978098397
88296.99955494082	0.024508062492714037
89940.22174092053	0.024774247245182117
91614.0245713852	0.025045385741186525
93318.9771573324	0.025321570170737405
95055.65920101192	0.025602894439516664
96824.66119303115	0.025889454200806905
98626.5846131283	0.026181346888014646
100462.04213468132	0.02647100772688355
102331.65783302448	0.026742854019260173
104236.06739764012	0.0270197594173942
106175.9183482999	0.027301818072104602
108151.87025522892	0.02758912588637317
110164.59496336569	0.027881780547952376
112214.77682079801	0.02817988156258052
114303.11291144785	0.028483530287814557
116430.31329208757	0.02879282996749285
118597.10123376705	0.029107885766839176
120804.21346773289	0.029428804808219928
123052.40043592616	0.02975569620756707
125342.42654613995	0.030088671111478584
127675.07043192645	0.03040103127921402
130051.12521734099	0.030710776130354316
132471.39878661174	0.031026285385879225
134936.71405883064	0.03134766632233525
137447.90926775365	0.03167502821270361
140005.8382468096	0.032008482363554296
142611.37071941295	0.03234814215289158
145265.39259467812	0.03269412306870353
147968.80626863963	0.033046542748229456
150722.53093107554	0.03340552101795767
153527.5028780421	0.03377117993436784
156384.67583022476	0.034143643825431474
159295.0212572123	0.034512075794131784
162259.5287078087	0.034858192582709176
165279.2061464897	0.03521075066361586
168355.08029612005	0.035569869910398025
171488.19698705408	0.03593567242746916
174679.62151272455	0.03630828259162643
177930.43899185772	0.03668782709434052
181241.75473742394	0.03707443498483193
184614.69463245454	0.03746823771394892
188050.40551285836	0.03786936917886277
191550.0555573528	0.03827796576859354
195114.83468466165	0.038694166410384354
198745.9549580986	0.03911811261693795
202444.65099768018	0.03951410201895731
206212.18039991445	0.03990769847728554
210049.8241653915	0.04030861983267601
213958.88713434213	0.040717002402709465
217940.6984302958	0.04113298504186002
221996.61191199525	0.04155670918870699
226128.00663372793	0.04198831891402609
230336.2873142131	0.0424279609697743
234622.88481422624	0.042875784838987706
238989.25662310526	0.04333194278660713
243436.8873543108	0.04379658991124965
247967.289250216	0.044269884197944365
252582.00269627848	0.0447365702222572
257282.59674479323	0.0451756364956802
262070.66964838552	0.045622873867161406
266947.8494034318	0.04607843440222589
271915.7943036019	0.04654247299636437
276976.1935036891	0.047015147427698654
282130.76759394706	0.047496618410628445
287381.2691851069	0.04798704965047579
292729.4835042813	0.04848660789914639
298177.22900196735	0.04899546301182767
303726.3579703311	0.049513788004740635
309378.75717301364	0.050041759113967806
315136.34848664823	0.05057955585537519
321001.08955431683	0.051079878117717026
326974.97445117676	0.05157845246118012
333060.03436245886	0.05208630535801039
339258.33827409917	0.052603609483664895
345571.9936762143	0.05313054072712028
352003.1472796675	0.05366727825067672
358553.9857459817	0.05421400455087579
365226.7364308175	0.054770905520550243
372023.6681413066	0.05533817051203037
378947.09190746717	0.05591599240152553
385999.36176797637	0.056504567654703915
393182.87557057705	0.05710409639349369
400500.07578736113	0.057693416840081536
407953.45034524484	0.05824891864086512
415545.53347188793	0.058814758424683304
423278.90655735444	0.05939112858315926
431156.19903182285	0.05997822508835738
439180.0892596086	0.06057624755941516
447353.3054498463	0.06118539933041642
455678.6265841068	0.061805887519526884
464158.8833612772	0.06243792309941636
472796.9591600391	0.06308172096899232
481595.79101923504	0.0637375000264671
490558.37063650455	0.06440548324378617
499687.7453854889	0.065085897742441
508987.0193519675	0.06571655506557007
518459.3543892913	0.06634672565936116
528107.971193433	0.0669886238351299
537936.1503980698	0.06764246784517255
547947.2336900292	0.06830848000349761
558144.6249454955	0.0689868867614149
568531.7913873753	0.06967791878453215
579112.2647641759	0.07038181103118275
589889.6425508494	0.07109880283231501
600867.5891719692	0.07182913797286684
612049.837247669	0.07257306477465507
623440.1888627863	0.07333083618080832
635042.5168595961	0.07407344292817492
646860.7661546321	0.07477501322436822
658898.9550799957	0.0754896398631502
671161.1767496272	0.07621756582527767
683651.6004510238	0.07695903861342149
696374.4730628222	0.07771431033631859
709334.1204987989	0.07848363779449281
722534.9491787221	0.0792672825675694
735981.4475265755	0.08006551110321461
749678.1874966878	0.08087859480773173
763629.8261282243	0.08170681013834086
777841.1071286482	0.0825504386971784
792316.8624866261	0.08340976732704447
807062.0141149492	0.08420350079787876
822081.575524054	0.08499887875725293
837380.6535266489	0.08580905883578926
852964.4499741016	0.08663431650344416
868838.2635251193	0.08747493235671672
885007.4914473438	0.08833119221405443
901477.6314524917	0.08920338721303489
918254.2835656281	0.09009181390935558
935343.1520292377	0.0909967743776659
952750.0472427299	0.09191857631427601
970480.8877380306	0.09285753314177646
988541.7021919573	0.09381396411560577
1006938.6314760271	0.09474846639733639
1025677.9307444209	0.09563353301567197
1044765.9715608053	0.09653507087437427
1064209.2440647245	0.09745338650602897
1084014.359178331	0.09838879214784564
1104188.0508541602	0.09934160584782138
1124737.1783647507	0.10031215157288062
1145668.7286348727	0.1013007593190275
1166989.8186171474	0.10230776522354756
1188707.6977119034	0.10333351167929881
1210829.7502320393	0.10437834745112848
1233363.4979137746	0.10544262779445693
1256316.6024741214	0.10652671457606852
1279696.8682159416	0.10752476303225177
1303512.2446815087	0.10852779713071699
1327770.829355429	0.10954949786442686
1352480.8704178738	0.1105902126226396
1377650.769549055	0.11165029525958663
1403289.084785873	0.11273010621478649
1429404.533431761	0.11383001263559894
1456005.9950206485	0.11495038850205835
1483102.514336103	0.1160916147540312
1510703.3044866556	0.11725407942073988
1538817.7500383465	0.11843817775269617
1567455.410205595	0.11964431235609159
1596626.022101425	0.12081933888448858
1626339.5040481905	0.12193515694020371
1656605.9589499151	0.12307174055979891
1687435.6777273756	0.12422947619395117
1718839.1428171454	0.12540875748525063
1750827.0317357269	0.12660998540204307
1783410.220710006	0.12783356837476284
1816599.7883753285	0.12907992243480515
1850407.019542302	0.13034947135597932
1884843.4090337954	0.13164264679859786
1919920.6655932867	0.13295988845624523
1955650.715865947	0.13430164420527765
1992045.7084538713	0.13566837025710765
2029118.0180466783	0.1369226371071219
2066880.2496290822	0.13818690105160966
2105345.242766708	0.1394746931632265
2144526.0759716653	0.14078645130516576
2184436.0711494284	0.1421226214893303
2225088.7981283693	0.14348365802797933
2266498.079273693	0.14487002368820115
2308677.994187172	0.1462821898492582
2351642.884494346	0.14772063666286075
2395407.358720879	0.14918585321642502
2439986.29725955	0.15067833769936642
2485394.857429798	0.15219859757249043
2531648.478631358	0.15367534624110973
2578762.8875937983	0.15508153156349005
2626754.1037238385	0.15651388623399107
2675638.4445520453	0.15797289726863362
2725432.531281028	0.1594590607468903
2776153.2944368036	0.1609728819803571
2827817.979625338	0.16251487568456416
2880444.1533962977	0.16408556615398626
2934049.709215787	0.16568548744030653
2988652.873550383	0.16731518353400138
3044272.2120643063	0.1689752085493026
3100926.6359319235	0.17066612691260138
3158635.408267819	0.17238851355436138
3217418.1506763715	0.1739642676416709
3277294.849923382	0.1755573241642215
3338285.8647317644	0.17718002773972508
3400411.9327037027	0.17883293010488113
3463694.1773717343	0.1805165932643043
3528154.1153808828	0.1822315896816095
3593813.6638046256	0.1839785024740576
3660695.147596906	0.18575792561082108
3728821.30718283	0.18757046411493875
3798215.306190736	0.18941673426903274
3868900.7393279755	0.1912973638248481
3940901.6404034477	0.1932129922166975
4014242.490499326	0.19506841595964297
4088948.226294856	0.19684012824718558
4165044.248545185	0.19864481240186718
4242556.430717777	0.200483082035745
4321511.127789762	0.20235556218030182
4401935.1852088785	0.2042628894989628
4483855.948021181	0.2062057125035667
4567301.270168747	0.20818469177486965
4652299.523960189	0.21020050018714653
4738879.609717651	0.21225382313697777
4827070.965603188	0.21434535877629066
4916903.577628021	0.21647581824973805
5008407.989848212	0.21864592593649718
5101615.314749833	0.22062519068615535
5196557.243827657	0.2226321976337316
5293266.058360566	0.22467655532210662
5391774.640387494	0.22675895885492153
5492116.483887789	0.2288801162718161
5594325.706169377	0.23104074878916633
5698437.0594691355	0.23324159104530898
5804485.942768984	0.2354833913503252
5912508.413831869	0.237766911940473
6022541.201461928	0.24009292923735864
6134621.717992506	0.24246223411192475
6248788.072006888	0.24487563215335795
6365079.081295578	0.24720644047946672
6483534.286054714	0.24943839531401496
6604193.962330305	0.2517118872078151
6727099.135712336	0.2540276891726069
6852291.595284057	0.25638658860601093
6979813.907830667	0.2587893875592518
7109709.432312423	0.26123690300986246
7242022.334607315	0.26372996713946895
7376797.60252773	0.266269427616737
7514081.061116962	0.2688561478855912
7653919.388230155	0.27149100745879506
7796360.130405221	0.27417490221699276
7941451.71902934	0.27690874471332183
8089243.486805938	0.2793945593474746
8239785.684528512	0.28192281680803527
8393129.498166373	0.2844981255701354
8549327.066268368	0.2871213612665017
8708431.497690724	0.28979341582553725
8870496.889654402	0.2925151977745821
9035578.34613892	0.2952876325488263
9203731.99661823	0.2981116628059658
9375015.01514529	0.300988248746716
9549485.639791967	0.3039183684412917
9727203.192450536	0.30690301816196097
9908228.099003786	0.3099432127217879
10092621.909870483	0.312870903918896
10280447.320933098	0.3156824319777038
10471768.194855202	0.31854628305208427
10666649.582795387	0.3214634308822604
10865157.746525371	0.3244348673299262
11067360.180959744	0.3274616027154912
11273325.63710487	0.3305446661615983
11483124.14543511	0.333685105943039
11696827.039703846	0.3368839898431771
11914506.981197748	0.3401424055170058
12136237.983442418	0.34346146086096374
12362095.437367693	0.34684228438962955
12592156.13694151	0.35028130330676743
