# Frequency (Hz)	Real Part (Ohm)
1000.0	0.0011162781586
1018.6101701559753	0.0011316483492908218
1037.566678745186	0.0011473045818457307
1056.875971184804	0.0011632521795524864
1076.5446128423157	0.0011794965647661452
1096.5792912678098	0.0011960432607527089
1116.9868184678226	0.0012128978935671013
1137.7741332214914	0.0012300661939660868
1158.9483034398106	0.001247553999356786
1180.5165285688054	0.0012653672557814612
1202.4861420374123	0.0012835120199392307
1224.8646137509306	0.0013019944612454159
1247.6595526308697	0.001320820863929209
1270.8787092020582	0.00133933477281927
1294.529978227916	0.001357556867217106
1318.6214013947485	0.0013761180778922835
1343.1611700460153	0.0013950247158564264
1368.1576279674719	0.0014142832095701606
1393.619274224142	0.0014339001071288545
1419.5547660501015	0.0014538820784890487
1445.9729217920194	0.0014742359177363068
1472.882723907502	0.0014949685453952842
1500.2933220192183	0.0015160870107827763
1528.2140360258693	0.0015375984944045623
1556.654359271062	0.0015595103103968576
1585.6239617711371	0.0015817908360026378
1615.132693503091	0.0016029480290187606
1645.1905877536624	0.0016244989609969357
1675.807864530767	0.0016464509594862442
1706.9949340384078	0.0016688114884027038
1738.7624002162504	0.0016915881505670746
1771.1210643450886	0.0017147886902899112
1804.0819287193826	0.0017384209960046987
1837.6562003881704	0.0017624931029500167
1871.8552949655793	0.0017870131959016012
1906.690840512252	0.0018119896119552538
1942.1746814890264	0.0018374308433615524
1978.3188827841643	0.0018633455404132985
2015.1357338155585	0.001888722253751779
2052.6377527092523	0.00191368520351509
2090.8376905557498	0.0019391127180210907
2129.748535745521	0.0019650134428986937
2169.3835183851843	0.00199139618467343
2209.756114795903	0.0020182699137617772
2250.880052095462	0.0020456437675211827
2292.7693128656488	0.002073527053356875
2335.438139906479	0.002101929251886479
2378.9010410788933	0.0021308600201635215
2423.1727942376006	0.002160329194960944
2468.2684522556924	0.0021903467961157013
2514.2033481427966	0.0022208092884427786
2560.9931002584594	0.002249657561845545
2608.6536176225477	0.0022790427065250414
2657.2011053245064	0.0023089747137470832
2706.652070033241	0.0023394637607166346
2757.0233256095826	0.002370520214038184
2808.3319988231724	0.0024021546332404897
2860.5955351757416	0.002434377774366933
2913.831704832789	0.002467200593632703
2968.0586086656026	0.002500634251150005
3023.2946844057765	0.002534690114722641
3079.5587129142264	0.002569379763711174
3136.8698245668766	0.0026047149929700327
3195.2475057592133	0.002639166213547345
3254.711605531848	0.0026730484489650526
3315.282342319423	0.002707561238549149
3376.9803108250912	0.0027427163170199646
3439.8264890229243	0.0027785256374829666
3503.8422452906757	0.0028150013754929576
3569.0493456752292	0.002852155933193876
3635.4699612933177	0.00289000194353568
3703.126675869927	0.002928552274569671
3772.0424934169973	0.0029678200338237723
3842.240846055061	0.003007818572759238
3913.745601980384	0.003048561491310281
3986.581073580439	0.0030898182209214468
4060.7720257003657	0.0031288002519038465
4136.343684063274	0.003168507745115852
4213.321743847289	0.0032089542015330016
4291.732378422157	0.003250153373386279
4371.602248248501	0.0032921192688380296
4452.958509942655	0.0033348661567448893
4535.828825510186	0.003378408571509332
4620.241371751313	0.0034227613180215443
4706.224849841281	0.0034679394766932315
4793.808495089106	0.003513958408585132
4883.02208687788	0.0035608337606299408
4973.895958790063	0.0036085814709524225
5066.461008921268	0.0036549283668831107
5160.7487103859075	0.0037005154453550134
5256.791122018419	0.0037469509071141917
5354.620899273607	0.003794250540717983
5454.271305329836	0.003842430428551456
5555.7762223988775	0.003891506952295602
5659.170163246242	0.003941496798497291
5764.488282925873	0.003992416964242866
5871.766390733255	0.004044284762937337
5981.040962380945	0.00409711783019113
6092.349152400711	0.004150934129816374
6205.7288067765	0.0042057519599348085
6321.218475812449	0.004261129896297301
6438.8574272404185	0.004313359463201045
6558.685659571435	0.004366561031232044
6680.743915695614	0.0044207526894966594
6805.073696735206	0.004475952863742612
6931.717276155407	0.004532180322623928
7060.717714137772	0.004589454184082458
7192.118872221193	0.004647793921848225
7325.96542821523	0.004707219372060664
7462.302891391108	0.004767750740013153
7601.17761795533	0.004829408607023015
7742.636826811269	0.00489221393742938
7886.728615614156	0.004956188085721317
8033.501977124735	0.005018006339345896
8183.00681586739	0.005078838287393654
8335.293965098195	0.005140802328345502
8490.415204088747	0.005203919530643011
8648.423275731726	0.00526821135481505
8809.37190447399	0.005333699660774566
8973.31581458352	0.005400406715251216
9140.310748756232	0.005468355199362283
9310.413487069076	0.005537568216324494
9483.681866285926	0.005608069299309384
9660.174799522645	0.0056798824194448
9839.952296278227	0.005753031993965367
10023.075482838643	0.005826741801009533
10209.606623060476	0.005896163706268627
10399.609139541202	0.005966877564997136
10593.1476351837	0.00603890742066897
10790.287915161836	0.006112277764211166
10991.097009294961	0.006187013542331084
11195.643194838794	0.006263140165998563
11403.99601970033	0.006340683519085883
11616.22632608502	0.006419669967168624
11832.40627458378	0.006500126366490203
12052.609368708414	0.006582080073093291
12276.910479883603	0.006665558952121186
12505.385872903913	0.00675059138729221
12738.113231864783	0.006832383724679485
12975.171686575868	0.006912930600570935
13216.641839466038	0.0069949764675282565
13462.60579298911	0.007078549222030258
13713.147177539455	0.0071636772797139345
13968.351179887397	0.007250389585036155
14228.30457214352	0.007338715621115036
14493.09574126215	0.007428685419754548
14762.81471909391	0.007520329571655652
15037.553212997384	0.007613679236817427
15317.404637020798	0.007708766155131861
15602.46414366368	0.0078056226571757365
15892.828656229764	0.007902958224449062
16188.596901781993	0.007994536136552828
16489.86944471065	0.008087818329183361
16796.74872092653	0.008182836519291272
17109.339072690134	0.008279623014085004
17427.746784089173	0.008378210722015647
17752.08011717636	0.00847863316396618
18082.44934877952	0.008580924484648879
18418.96680799711	0.00868511946421496
18761.746914391195	0.008791253530080166
19110.90621689136	0.008899362768970472
19466.56343342263	0.009009483939191968
19828.83949127071	0.009121654483129047
20197.857568198782	0.009229049753189155
20573.743134329114	0.009334915167326097
20956.623994804308	0.009442750754833763
21346.630333242454	0.009552593180973831
21743.8947560008	0.009664479793354693
22148.55233726359	0.009778448634630144
22560.74066496859	0.009894538455434206
22980.599887588487	0.010012788727556812
23408.272761782944	0.01013323965736462
23843.904700937208	0.010255932199471584
24287.643824604504	0.010380908070664028
24739.64100886812	0.010508209764084758
25200.049937640895	0.010635776954143193
25669.027154919517	0.010755709231715649
26146.732118010917	0.01087787346938091
26633.327251749808	0.011002311204296096
27128.978003724646	0.011129064746631879
27633.852900531667	0.0112581771939584
28148.123605075813	0.011389692445898941
28671.964974937695	0.011523655219056184
29205.55512182745	0.011660111062216448
29749.075472144435	0.011799106371836721
30302.71082866393	0.011940688407819876
30866.649433372742	0.012084905309583739
31441.08303147265	0.012231806112428783
32026.206936576502	0.01237178520046429
32622.220097116733	0.01250993980336425
33229.325163989684	0.012650665486931978
33847.72855945983	0.012794010099416248
34477.640547344636	0.012940022379529778
35119.275304507275	0.013088751973021083
35772.850993678774	0.013240249449554507
36438.58983763541	0.013394566319904383
37116.71819475767	0.013551755053469443
37807.466635993485	0.013711869096112732
38511.070023255685	0.013874962888333979
39227.76758927723	0.01404109188377986
39957.803018952654	0.014207068633827685
40701.42453219439	0.014363038202301807
41458.88496832911	0.014521910390984372
42230.441872066716	0.014683739218131368
43016.35758106799	0.014848579707287736
43816.89931514194	0.015016487905995876
44632.33926710397	0.015187520904852555
45462.95469532399	0.01536173685692025
46309.02801799736	0.015539194997499804
47170.84690917023	0.015719955664271132
48048.704396551344	0.015904080317808558
48942.89896114532	0.016091631562478226
49853.73463873894	0.016282673167724162
50781.5211232767	0.01646383203138605
51726.57387216024	0.01664288972670266
52689.21421350677	0.016825279716196833
53669.76945540476	0.017011064014430234
54668.57299720181	0.01720030579006607
55685.96444286408	0.017393069387347103
56722.28971644549	0.01758942034797344
57777.90117970507	0.017789425433387303
58853.1577519145	0.01799315264747277
59948.42503189408	0.018200671259677777
61064.07542232036	0.018412051828566447
62200.48825634718	0.018627366225809832
63358.04992658254	0.01884181038884199
64537.15401646702	0.01904329017435087
65738.20143409586	0.019248519532951067
66961.60054853215	0.019457568244835813
68207.76732865692	0.01967050738881964
69477.1254846024	0.019887409366505855
70770.10661181889	0.020108347926903976
72087.15033782135	0.020333398191505123
73428.70447166759	0.020562636679824147
74795.22515621828	0.020796141335417108
76187.17702322999	0.021033991552382846
77605.0333513357	0.021276268202357944
79049.2762269642	0.021523053662013902
80520.39670825469	0.02175593384637624
82018.8949920221	0.021986503000094564
83545.28058382872	0.022221363084996268
85100.07247122246	0.02246059395604085
86683.79930019773	0.02270427695430213
88296.99955494082	0.02295249493462516
89940.22174092053	0.023205332293797818
91614.0245713852	0.023462874999246434
93318.9771573324	0.023725210618265876
95055.65920101192	0.02399242834779325
96824.66119303115	0.024264619044735813
98626.5846131283	0.024541875256863376
100462.04213468132	0.024817120718645894
102331.65783302448	0.025075777540020848
104236.06739764012	0.025339248008853597
106175.9183482999	0.025607621707942396
108151.87025522892	0.02588098988723666
110164.59496336569	0.026159445494862783
112214.77682079801	0.026443083208727708
114303.11291144785	0.026731999468710323
116430.31329208757	0.027026292509452036
118597.10123376705	0.027326062393757712
120804.21346773289	0.027631411046617912
123052.40043592616	0.027942442289864745
125342.42654613995	0.02825926187747222
127675.07043192645	0.028556801578612234
130051.12521734099	0.028851964284978306
132471.39878661174	0.029152620019533507
134936.71405883064	0.02945887100846716
137447.90926775365	0.0297708213804153
140005.8382468096	0.030088577201865606
142611.37071941295	0.030412246513221195
145265.39259467812	0.03074193936553535
147968.80626863963	0.03107776785793028
150722.53093107554	0.0314198461757119
153527.5028780421	0.031768290629194104
156384.67583022476	0.03212321969324556
159295.0212572123	0.03247442451582188
162259.5287078087	0.03280468052270538
165279.2061464897	0.03314108265007205
168355.08029612005	0.03348374527826977
171488.19698705408	0.03383278491628442
174679.62151272455	0.03418832024135367
177930.43899185772	0.034550472139318916
181241.75473742394	0.03491936374572764
184614.69463245454	0.035295120487700664
188050.40551285836	0.03567787012657915
191550.0555573528	0.03606774280136425
195114.83468466165	0.03646487107296627
198745.9549580986	0.03686938996927659
202444.65099768018	0.03724755935857086
206212.18039991445	0.0376235403617895
210049.8241653915	0.03800651843545342
213958.88713434213	0.03839662379623423
217940.6984302958	0.03879398908415797
221996.61191199525	0.03919874940770395
226128.00663372793	0.03961104238974362
230336.2873142131	0.04003100821433311
234622.88481422624	0.0404587896743779
238989.25662310526	0.04089453222018375
243436.8873543108	0.041338384008911135
247967.289250216	0.041790495954950886
252582.00269627848	0.042236412051485046
257282.59674479323	0.0426562214211587
262070.66964838552	0.04308384351463509
266947.8494034318	0.043519423728033434
271915.7943036019	0.04396311016331981
276976.1935036891	0.0444150536786627
282130.76759394706	0.04487540793972701
287381.2691851069	0.04534432947192181
292729.4835042813	0.045821977713620454
298177.22900196735	0.04630851507037192
303726.3579703311	0.046804106970119705
309378.75717301364	0.047308921919449735
315136.34848664823	0.04782313156088413
321001.08955431683	0.048301804037115675
326974.97445117676	0.048778879133348586
333060.03436245886	0.049264832678299515
339258.33827409917	0.049759829901409876
345571.9936762143	0.05026403910706911
352003.1472796675	0.05077763173183976
358553.9857459817	0.05130078240274837
365226.7364308175	0.05183366899665975
372023.6681413066	0.05237647270075763
378947.09190746717	0.05292937807415015
385999.36176797637	0.05349257311062152
393182.87557057705	0.054066249302552764
400500.07578736113	0.05463026370988433
407953.45034524484	0.05516214260542149
415545.53347188793	0.05570391985770706
423278.90655735444	0.056255779676844156
431156.19903182285	0.05681790970111777
439180.0892596086	0.057390501060792826
447353.3054498463	0.05797374844310129
455678.6265841068	0.05856785015843761
464158.8833612772	0.05917300820778615
472796.9591600391	0.05978942835140447
481595.79101923504	0.06041732017878301
490558.37063650455	0.061056897179908635
499687.7453854889	0.061708376817853114
508987.0193519675	0.06231246141006133
518459.3543892913	0.06291613276284021
528107.971193433	0.06353103854221251
537936.1503980698	0.06415738782276882
547947.2336900292	0.06479539357001345
558144.6249454955	0.06544527271277463
568531.7913873753	0.06610724621696357
579112.2647641759	0.06678153916070412
589889.6425508494	0.06746838081086268
600867.5891719692	0.06816800470100097
612049.837247669	0.06888064871077976
623440.1888627863	0.0696065551468413
635042.5168595961	0.07031802495948071
646860.7661546321	0.07099035496562617
658898.9550799957	0.07167519714758706
671161.1767496272	0.07237278435908409
683651.6004510238	0.07308335378728585
696374.4730628222	0.07380714703345403
709334.1204987989	0.07454441019509112
722534.9491787221	0.0752953939496161
735981.4475265755	0.076060353639597
749678.1874966878	0.07683954935957106
763629.8261282243	0.07763324604447859
777841.1071286482	0.07844171355974444
792316.8624866261	0.07926522679303509
807062.0141149492	0.08002607390419055
822081.575524054	0.08078853199285017
837380.6535266489	0.08156517955627647
852964.4499741016	0.08235628066300936
868838.2635251193	0.08316210429594922
885007.4914473438	0.0839829244438137
901477.6314524917	0.08481902019429739
918254.2835656281	0.08567067582896427
935343.1520292377	0.08653818091990662
952750.0472427299	0.08742183042820266
970480.8877380306	0.08832192480420624
988541.7021919573	0.08923877008970366
1006938.6314760271	0.09013466737480005
1025677.9307444209	0.09098329938595949
1044765.9715608053	0.09184772458324654
1064209.2440647245	0.09272823688054209
1084014.359178331	0.09362513566151477
1104188.0508541602	0.094538725881414
1124737.1783647507	0.09546931817075839
1145668.7286348727	0.09641722894095345
1166989.8186171474	0.09738278049187439
1188707.6977119034	0.09836630112145239
1210829.7502320393	0.09936812523729865
1233363.4979137746	0.10038859347040724
1256316.6024741214	0.10142805279097288
1279696.8682159416	0.1023851652585428
1303512.2446815087	0.10334708005596743
1327770.829355429	0.10432689625144774
1352480.8704178738	0.10532494699304748
1377650.769549055	0.10634157162877281
1403289.084785873	0.10737711582195361
1429404.533431761	0.10843193166877355
1456005.9950206485	0.10950637781798606
1483102.514336103	0.11060081959285882
1510703.3044866556	0.1117156291153879
1538817.7500383465	0.11285118543282263
1567455.410205595	0.1140078746465465
1596626.022101425	0.11513478869047947
1626339.5040481905	0.11620500983001673
1656605.9589499151	0.11729514796706547
1687435.6777273756	0.11840557376033804
1718839.1428171454	0.11953666476656903
1750827.0317357269	0.12068880556888797
1783410.220710006	0.12186238790758148
1816599.7883753285	0.12305781081329037
1850407.019542302	0.12427548074268271
1884843.4090337954	0.12551581171665488
1919920.6655932867	0.1267792254611025
1955650.715865947	0.12806615155031148
1992045.7084538713	0.12937702755301903
2029118.0180466783	0.1305801533521467
2066880.2496290822	0.13179288081434512
2105345.242766708	0.13302817734096795
2144526.0759716653	0.1342864629461441
2184436.0711494284	0.1355681654605376
2225088.7981283693	0.13687372067681325
2266498.079273693	0.13820357249781176
2308677.994187172	0.13955817308748142
2351642.884494346	0.14093798302461796
2395407.358720879	0.1423434714594678
2439986.29725955	0.1437751162732423
2485394.857429798	0.14523340424060405
2531648.478631358	0.1466499999467917
2578762.8875937983	0.1479989713846495
2626754.1037238385	0.1493730474105016
2675638.4445520453	0.150772695225002
2725432.531281028	0.15219839072348865
2776153.2944368036	0.1536506186577929
2827817.979625338	0.15512987280105953
2880444.1533962977	0.15663665611563657
2934049.709215787	0.15817148092408592
2988652.873550383	0.1597348690833801
3044272.2120643063	0.16132735216233884
3100926.6359319235	0.16294947162236706
3158635.408267819	0.16460177900156012
3217418.1506763715	0.16611350643081313
3277294.849923382	0.16764183973758057
3338285.8647317644	0.1691986155872422
3400411.9327037027	0.17078436330036048
3463694.1773717343	0.1723996220482446
3528154.1153808828	0.1740449410362726
3593813.6638046256	0.1757208796906287
3660695.147596906	0.1774280078485135
3728821.30718283	0.17916690595189422
3798215.306190736	0.18093816524486317
3868900.7393279755	0.1827423879746644
3940901.6404034477	0.18458018759646652
4014242.490499326	0.186360264394002
4088948.226294856	0.18806007563275073
4165044.248545185	0.18979152064788604
4242556.430717777	0.1915551881493686
4321511.127789762	0.19335167780315218
4401935.1852088785	0.19518160043507637
4483855.948021181	0.19704557823855257
4567301.270168747	0.19894424498611885
4652299.523960189	0.20087824624492656
4738879.609717651	0.2028482395962426
4827070.965603188	0.20485489485903297
4916903.577628021	0.2068988943177078
5008407.989848212	0.20898093295410775
5101615.314749833	0.21087994043266695
5196557.243827657	0.2128055681250628
5293266.058360566	0.21476703207647138
5391774.640387494	0.2167649992057701
5492116.483887789	0.2188001488433115
5594325.706169377	0.22087317296190023
5698437.0594691355	0.22298477641207334
5804485.942768984	0.22513567716175634
5912508.413831869	0.22732660654037912
6022541.201461928	0.22955830948753825
6134621.717992506	0.2318315448062814
6248788.072006888	0.23414708542111082
6365079.081295578	0.23638341383397532
6483534.286054714	0.2385249295743808
6604193.962330305	0.24070629928710732
6727099.135712336	0.24292826466136055
6852291.595284057	0.2451915811893094
6979813.907830667	0.24749701842296046
7109709.432312423	0.2498453602358131
7242022.334607315	0.2522374050893879
7376797.60252773	0.2546739663047082
7514081.061116962	0.25715587233884096
7653919.388230155	0.2596839670665804
7796360.130405221	0.262259110067373
7941451.71902934	0.26488217691758686
8089243.486805938	0.26726731833508943
8239785.684528512	0.2696931844320088
8393129.498166373	0.27216419630976774
8549327.066268368	0.27468119413902875
8708431.497690724	0.2772450337261749
8870496.889654402	0.2798565868042904
9035578.34613892	0.28251674132956084
9203731.99661823	0.2852264017831881
9375015.01514529	0.2879864894789219
9549485.639791967	0.2907979428763189
9727203.192450536	0.29366171789982687
9908228.099003786	0.29657878826381084
10092621.909870483	0.29938793475737857
10280447.320933098	0.30208564646924657
10471768.194855202	0.3048335630551041
10666649.582795387	0.307632618836199
10865157.746525371	0.31048376552165613
11067360.180959744	0.31338797253206957
11273325.63710487	0.31634622732911466
11483124.14543511	0.31935953575129744
11696827.039703846	0.3224289223559495
11914506.981197748	0.3255554307675887
12136237.983442418	0.3287401240327628
12362095.437367693	0.3319840849814961
12592156.13694151	0.3352838859608674
12826498.3052806	0.3382838588124089
