# Frequency (Hz)	Real Part (Ohm)
1000.0	0.0009557681641
1018.6101701559753	0.0009681130075857864
1037.566678745186	0.000980687590709393
1056.875971184804	0.0009934961889645692
1076.5446128423157	0.0010065431574127347
1096.5792912678098	0.0010198329321637399
1116.9868184678226	0.0010333700318841952
1137.7741332214914	0.0010471590593338677
1158.9483034398106	0.0010612047029306634
1180.5165285688054	0.0010755117383447462
1202.4861420374123	0.0010900850301223122
1224.8646137509306	0.001104929533339591
1247.6595526308697	0.0011200502952876251
1270.8787092020582	0.0011348180053310363
1294.529978227916	0.0011492514526291243
1318.6214013947485	0.001163953508837366
1343.1611700460153	0.001178929172813286
1368.1576279674719	0.0011941835364439979
1393.619274224142	0.0012097217863774967
1419.5547660501015	0.0012255492057861857
1445.9729217920194	0.0012416711761631988
1472.882723907502	0.0012580931791521786
1500.2933220192183	0.0012748207984110854
1528.2140360258693	0.001291859721510704
1556.654359271062	0.0013092157418684825
1585.6239617711371	0.0013268578426755921
1615.132693503091	0.001343375112040246
1645.1905877536624	0.0013601997705982869
1675.807864530767	0.001377337538914909
1706.9949340384078	0.0013947942440159981
1738.7624002162504	0.0014125758213693806
1771.1210643450886	0.001430688316902952
1804.0819287193826	0.0014491378890603512
1837.6562003881704	0.001467930810894905
1871.8552949655793	0.0014870734722025288
1906.690840512252	0.001506572381694324
1942.1746814890264	0.0015264341692096195
1978.3188827841643	0.0015466655879701747
2015.1357338155585	0.001566322721689842
2052.6377527092523	0.0015855199756078864
2090.8376905557498	0.0016050744936878727
2129.748535745521	0.0016249929246766471
2169.3835183851843	0.0016452820410553614
2209.756114795903	0.0016659487413421992
2250.880052095462	0.0016870000524379365
2292.7693128656488	0.0017084431320151716
2335.438139906479	0.0017302852709520085
2378.9010410788933	0.0017525338958110292
2423.1727942376006	0.001775196571364414
2468.2684522556924	0.0017982810031660355
2514.2033481427966	0.0018216905922902053
2560.9931002584594	0.0018435329230368194
2608.6536176225477	0.0018657817432752293
2657.2011053245064	0.0018884446178440478
2706.652070033241	0.0019115292523648139
2757.0233256095826	0.0019350434958620006
2808.3319988231724	0.001958995343431759
2860.5955351757416	0.00198339293896034
2913.831704832789	0.0020082445778931064
2968.0586086656026	0.0020335587100550646
3023.2946844057765	0.002059343942523908
3079.5587129142264	0.0020856090425565087
3136.8698245668766	0.002112362940569879
3195.2475057592133	0.002138221218210581
3254.711605531848	0.0021634668409945277
3315.282342319423	0.002189182289114178
3376.9803108250912	0.002215376306098973
3439.8264890229243	0.0022420577981969217
3503.8422452906757	0.0022692358374028308
3569.0493456752292	0.0022969196645428653
3635.4699612933177	0.0023251186924165453
3703.126675869927	0.0023538425089971882
3772.0424934169973	0.0023831008806919247
3842.240846055061	0.002412903755662389
3913.745601980384	0.002443261267207189
3986.581073580439	0.0024739664877043107
4060.7720257003657	0.002502538874895311
4136.343684063274	0.0025316429990736963
4213.321743847289	0.002561288755955285
4291.732378422157	0.002591486225416839
4371.602248248501	0.0026222456749233542
4452.958509942655	0.00265357756301909
4535.828825510186	0.002685492542883595
4620.241371751313	0.002718001465953904
4706.224849841281	0.002751115385614138
4793.808495089106	0.00278484556095378
4883.02208687788	0.0028192034605958854
4973.895958790063	0.002854200766596529
5066.461008921268	0.0028878508001895856
5160.7487103859075	0.0029207108156209752
5256.791122018419	0.002954182361530871
5354.620899273607	0.002988276818605536
5454.271305329836	0.0030230057793277356
5555.7762223988775	0.003058381051918314
5659.170163246242	0.003094414664351117
5764.488282925873	0.0031311188684426277
5871.766390733255	0.0031685061440177246
5981.040962380945	0.003206589203152942
6092.349152400711	0.003245380994498724
6205.7288067765	0.0032848947076821056
6321.218475812449	0.0033247497920558928
6438.8574272404185	0.0033617678332546032
6558.685659571435	0.0033994747864988643
6680.743915695614	0.0034378834725590623
6805.073696735206	0.003477006950802308
6931.717276155407	0.0035168585236327555
7060.717714137772	0.003557451741014559
7192.118872221193	0.003598800405079019
7325.96542821523	0.003640918574817439
7462.302891391108	0.003683820570861348
7601.17761795533	0.003727520980351668
7742.636826811269	0.0037720346618984866
7886.728615614156	0.0038173767506331628
8033.501977124735	0.003860754621880668
8183.00681586739	0.003903146797800767
8335.293965098195	0.003946327899328023
8490.415204088747	0.003990312608502222
8648.423275731726	0.004035115880598415
8809.37190447399	0.004080752949211861
8973.31581458352	0.004127239331437624
9140.310748756232	0.004174590833146547
9310.413487069076	0.0042228235543594105
9483.681866285926	0.0042719538947211325
9660.174799522645	0.004321998559076807
9839.952296278227	0.0043729745631515375
10023.075482838643	0.00442424133635
10209.606623060476	0.004471814167272414
10399.609139541202	0.004520272336673093
10593.1476351837	0.004569632320851763
10790.287915161836	0.004619910902734897
10991.097009294961	0.004671125177582076
11195.643194838794	0.0047232925587985825
11403.99601970033	0.004776430783856113
11616.22632608502	0.004830557920323751
11832.40627458378	0.004885692372011108
12052.609368708414	0.004941852885225822
12276.910479883603	0.004999058555147515
12505.385872903913	0.005057328832320333
12738.113231864783	0.0051128112674755765
12975.171686575868	0.0051671039810581585
13216.641839466038	0.0052224070912787425
13462.60579298911	0.005278739401790692
13713.147177539455	0.00533612006618654
13968.351179887397	0.005394568594510461
14228.30457214352	0.0054541048598918535
14493.09574126215	0.0055147491053024475
14762.81471909391	0.00557652195043912
15037.553212997384	0.005639444398734796
15317.404637020798	0.005703537844499887
15602.46414366368	0.005768824080196548
15892.828656229764	0.005834287272827364
16188.596901781993	0.0058950320340398436
16489.86944471065	0.005956907265594564
16796.74872092653	0.006019934005736958
17109.339072690134	0.006084133684237779
17427.746784089173	0.006149528129679458
17752.08011717636	0.00621613957687807
18082.44934877952	0.006283990674443377
18418.96680799711	0.006353104492479645
18761.746914391195	0.006423504530429696
19110.90621689136	0.006495214725064983
19466.56343342263	0.006568259458624361
19828.83949127071	0.006642663567104267
20197.857568198782	0.006713198070567018
20573.743134329114	0.0067823437473030065
20956.623994804308	0.006852776236848603
21346.630333242454	0.006924519487009158
21743.8947560008	0.006997597891262738
22148.55233726359	0.007072036297054204
22560.74066496859	0.007147860014243587
22980.599887588487	0.0072250948237117234
23408.272761782944	0.0073037669861260365
23843.904700937208	0.007383903250869409
24287.643824604504	0.007465530865135319
24739.64100886812	0.007548677583192145
25200.049937640895	0.007631800259325222
25669.027154919517	0.007708993073816449
26146.732118010917	0.0077876224597201674
26633.327251749808	0.007867715151874814
27128.978003724646	0.007949298382658709
27633.852900531667	0.008032399891249365
28148.123605075813	0.008117047933055122
28671.964974937695	0.008203271289322245
29205.55512182745	0.008291099276920918
29749.075472144435	0.00838056175831327
30302.71082866393	0.008471689151706888
30866.649433372742	0.008564512441397451
31441.08303147265	0.008659063188303586
32026.206936576502	0.008748337105485072
32622.220097116733	0.008836044439002601
33229.325163989684	0.0089253840209208
33847.72855945983	0.009016386227660178
34477.640547344636	0.009109082000951533
35119.275304507275	0.009203502858356586
35772.850993678774	0.009299680903984229
36438.58983763541	0.00939764883940625
37116.71819475767	0.009497439974776322
37807.466635993485	0.009599088240155682
38511.070023255685	0.009702628197049812
39227.76758927723	0.009808095050159693
39957.803018952654	0.009913218018457917
40701.42453219439	0.010010985238621461
41458.88496832911	0.010110571923387917
42230.441872066716	0.010212011933303143
43016.35758106799	0.010315339759063529
43816.89931514194	0.010420590533243151
44632.33926710397	0.010527800042239301
45462.95469532399	0.010637004738440214
46309.02801799736	0.010748241752619254
47170.84690917023	0.01086154890655982
48048.704396551344	0.010976964725915101
48942.89896114532	0.011094528453307271
49853.73463873894	0.011214280061670382
50781.5211232767	0.011326931577035501
51726.57387216024	0.011437880505005885
52689.21421350677	0.011550894211404409
53669.76945540476	0.011666011122108964
54668.57299720181	0.011783270378109568
55685.96444286408	0.011902711848816699
56722.28971644549	0.012024376145617384
57777.90117970507	0.012148304635683426
58853.1577519145	0.012274539456036767
59948.42503189408	0.012403123527876495
61064.07542232036	0.01253410057117251
62200.48825634718	0.012667515119530801
63358.04992658254	0.01280010395979719
64537.15401646702	0.012923658455590695
65738.20143409586	0.013049512321574449
66961.60054853215	0.01317770834941895
68207.76732865692	0.013308290127154973
69477.1254846024	0.013441302053993917
70770.10661181889	0.01357678935542411
72087.15033782135	0.013714798098587892
73428.70447166759	0.013855375207944966
74795.22515621828	0.013998568481227222
76187.17702322999	0.01414442660569044
77605.0333513357	0.014292999174668548
79049.2762269642	0.014444336704435849
80520.39670825469	0.014586212739867908
82018.8949920221	0.01472631856087362
83545.28058382872	0.014869031775048072
85100.07247122246	0.015014400906421812
86683.79930019773	0.015162475382065848
88296.99955494082	0.015313305548897376
89940.22174092053	0.015466942690798314
91614.0245713852	0.015623439046052283
93318.9771573324	0.015782847825106323
95055.65920101192	0.01594522322866291
96824.66119303115	0.01611062046610883
98626.5846131283	0.01627909577428697
100462.04213468132	0.016446042241901524
102331.65783302448	0.016601973325518358
104236.06739764012	0.016760806313133914
106175.9183482999	0.01692259520967537
108151.87025522892	0.017087395025110832
110164.59496336569	0.0172552617931532
112214.77682079801	0.017426252590312375
114303.11291144785	0.017600425555301787
116430.31329208757	0.01777783990880622
118597.10123376705	0.017958555973617507
120804.21346773289	0.018142635195144828
123052.40043592616	0.01833014016230695
125342.42654613995	0.018521134628813052
127675.07043192645	0.01869960556468214
130051.12521734099	0.01887634363838442
132471.39878661174	0.01905637083771131
134936.71405883064	0.019239748373850382
137447.90926775365	0.019426538597139786
140005.8382468096	0.01961680501826808
142611.37071941295	0.01981061232986856
145265.39259467812	0.020008026428515374
147968.80626863963	0.02020911443712919
150722.53093107554	0.020413944727799647
153527.5028780421	0.02062258694503257
156384.67583022476	0.02083511202942994
159295.0212572123	0.02104510270951973
162259.5287078087	0.021241734017496714
165279.2061464897	0.021442024667573174
168355.08029612005	0.02164604276072816
171488.19698705408	0.0218538576653117
174679.62151272455	0.02206554004063047
177930.43899185772	0.022281161860972943
181241.75473742394	0.02250079644008135
184614.69463245454	0.022724518456079056
188050.40551285836	0.02295240397686217
191550.0555573528	0.02318453048596311
195114.83468466165	0.02342097690889613
198745.9549580986	0.023661823639992738
202444.65099768018	0.02388617116451553
206212.18039991445	0.02410897979749886
210049.8241653915	0.024335934937054212
213958.88713434213	0.024567113750374455
217940.6984302958	0.024802594840747073
221996.61191199525	0.025042458274279988
226128.00663372793	0.0252867856071252
230336.2873142131	0.02553565991320839
234622.88481422624	0.02578916581247524
238989.25662310526	0.026047389499663016
243436.8873543108	0.026310418773607604
247967.289250216	0.02657834306709636
252582.00269627848	0.026842315320302877
257282.59674479323	0.027090151156970985
262070.66964838552	0.02734259926073025
266947.8494034318	0.02759974546665597
271915.7943036019	0.027861677207228996
276976.1935036891	0.028128483542063307
282130.76759394706	0.02840025518818758
287381.2691851069	0.028677084550889815
292729.4835042813	0.028959065755136057
298177.22900196735	0.029246294677574166
303726.3579703311	0.02953886897913253
309378.75717301364	0.029836888138226172
315136.34848664823	0.03014045348458031
321001.08955431683	0.030422353980615865
326974.97445117676	0.030703139077859886
333060.03436245886	0.030989149633540845
339258.33827409917	0.03128048289432943
345571.9936762143	0.031577237916673426
352003.1472796675	0.031879515600477804
358553.9857459817	0.03218741872341222
365226.7364308175	0.032501051975855955
372023.6681413066	0.03282052199649424
378947.09190746717	0.03314593740857639
385999.36176797637	0.03347740885684867
393182.87557057705	0.033815049045175224
400500.07578736113	0.034146760676256945
407953.45034524484	0.034459046871400265
415545.53347188793	0.034777144765772615
423278.90655735444	0.0351011625160854
431156.19903182285	0.035431210291865155
439180.0892596086	0.03576740031291173
447353.3054498463	0.03610984688745472
455678.6265841068	0.03645866645101933
464158.8833612772	0.03681397760601553
472796.9591600391	0.037175901162064595
481595.79101923504	0.03754456017707515
490558.37063650455	0.037920079999084595
499687.7453854889	0.03830258830887862
508987.0193519675	0.038656719317127365
518459.3543892913	0.03901048978329156
528107.971193433	0.03937084397802718
537936.1503980698	0.039737904425643275
547947.2336900292	0.04011179593064705
558144.6249454955	0.04049264562017874
568531.7913873753	0.04088058298723656
579112.2647641759	0.041275739934705145
589889.6425508494	0.041678250820204425
600867.5891719692	0.042088252501772526
612049.837247669	0.04250588438439876
623440.1888627863	0.04293128846742331
635042.5168595961	0.04334803321931368
646860.7661546321	0.043741464083045356
658898.9550799957	0.04414221676209574
671161.1767496272	0.04455042751669362
683651.6004510238	0.04496623514289417
696374.4730628222	0.045389781019770425
709334.1204987989	0.0458212091574842
722534.9491787221	0.04626066624625093
735981.4475265755	0.04670830170621578
749678.1874966878	0.04716426773825854
763629.8261282243	0.047628719375742874
777841.1071286482	0.04810181453723004
792316.8624866261	0.04858371408017249
807062.0141149492	0.04902851688472003
822081.575524054	0.04947418591041413
837380.6535266489	0.0499281489125096
852964.4499741016	0.0503905602433186
868838.2635251193	0.050861577127676055
885007.4914473438	0.05134135971639767
901477.6314524917	0.05183007114073327
918254.2835656281	0.052327877567832935
935343.1520292377	0.052834948257245655
952750.0472427299	0.053351455618469525
970480.8877380306	0.053877575269572514
988541.7021919573	0.054413486096904946
1006938.6314760271	0.054936993584001656
1025677.9307444209	0.05543260351872662
1044765.9715608053	0.05593743683866783
1064209.2440647245	0.05645166519259351
1084014.359178331	0.05697546342368476
1104188.0508541602	0.05750900962898403
1124737.1783647507	0.05805248521994998
1145668.7286348727	0.058606074984139514
1166989.8186171474	0.05916996714803714
1188707.6977119034	0.059744353441054526
1210829.7502320393	0.06032942916072021
1233363.4979137746	0.06092539323908302
1256316.6024741214	0.061532448310351075
1279696.8682159416	0.06209108684214282
1303512.2446815087	0.06265248234050506
1327770.829355429	0.06322432550461662
1352480.8704178738	0.06380681076731481
1377650.769549055	0.06440013617986524
1403289.084785873	0.06500450347930105
1429404.533431761	0.06562011815701604
1456005.9950206485	0.06624718952863383
1483102.514336103	0.06688593080517738
1510703.3044866556	0.06753655916556311
1538817.7500383465	0.06819929583044385
1567455.410205595	0.06887436613742662
1596626.022101425	0.06953193337693445
1626339.5040481905	0.070156220861636
1656605.9589499151	0.0707921264426542
1687435.6777273756	0.0714398663347382
1718839.1428171454	0.0720996607764307
1750827.0317357269	0.07277173410495111
1783410.220710006	0.07345631483247246
1816599.7883753285	0.07415363572381861
1850407.019542302	0.07486393387560598
1884843.4090337954	0.07558745079685956
1919920.6655932867	0.07632443249112852
1955650.715865947	0.07707512954012948
1992045.7084538713	0.07783979718894808
2029118.0180466783	0.07854136303541029
2066880.2496290822	0.07924850112323337
2105345.242766708	0.07996879917119466
2144526.0759716653	0.08070250208839139
2184436.0711494284	0.08144985934172123
2225088.7981283693	0.08221112504070276
2266498.079273693	0.08298655802387625
2308677.994187172	0.08377642194681124
2351642.884494346	0.08458098537175193
2395407.358720879	0.08540052185893224
2439986.29725955	0.08623531005958791
2485394.857429798	0.08708563381070199
2531648.478631358	0.08791154728229707
2578762.8875937983	0.08869789132300816
2626754.1037238385	0.08949886936011822
2675638.4445520453	0.09031475373478999
2725432.531281028	0.09114582185650201
2776153.2944368036	0.09199235629737039
2827817.979625338	0.09285464488822603
2880444.1533962977	0.09373298081648124
2934049.709215787	0.0946276627258153
2988652.873550383	0.09553899481771752
3044272.2120643063	0.09646728695491877
3100926.6359319235	0.09741285476674758
3158635.408267819	0.09837601975644872
3217418.1506763715	0.09925704599271863
3277294.849923382	0.10014773567932833
3338285.8647317644	0.10105500125256214
3400411.9327037027	0.10197915119249028
3463694.1773717343	0.10292049972005032
3528154.1153808828	0.10387936690388419
3593813.6638046256	0.10485607876916624
3660695.147596906	0.10585096740845462
3728821.30718283	0.10686437109460623
3798215.306190736	0.10789663439579399
3868900.7393279755	0.10894810829266252
3940901.6404034477	0.11001915029766635
4014242.490499326	0.11105647247146287
4088948.226294856	0.11204691711591841
4165044.248545185	0.11305579410373752
4242556.430717777	0.1140834464639663
4321511.127789762	0.11513022360948014
4401935.1852088785	0.11619648145578748
4483855.948021181	0.11728258254204449
4567301.270168747	0.11838889615432359
4652299.523960189	0.11951579845117297
4738879.609717651	0.12066367259151585
4827070.965603188	0.1218329088649283
4916903.577628021	0.12302390482434122
5008407.989848212	0.12423706542121418
5101615.314749833	0.12534342758425565
5196557.243827657	0.1264652921031345
5293266.058360566	0.12760803471160176
5391774.640387494	0.12877204395445677
5492116.483887789	0.12995771560738473
5594325.706169377	0.13116545281152267
5698437.0594691355	0.1323956662105333
5804485.942768984	0.13364877409022788
5912508.413831869	0.13492520252078702
6022541.201461928	0.1362253855016311
6134621.717992506	0.13754976510898245
6248788.072006888	0.13889879164617772
6365079.081295578	0.14020160475758323
6483534.286054714	0.14144910698870725
6604193.962330305	0.14271982544862277
6727099.135712336	0.14401419219529746
6852291.595284057	0.14533264732737203
6979813.907830667	0.1466756391337977
7109709.432312423	0.1480436242462587
7242022.334607315	0.14943706779443375
7376797.60252773	0.15085644356414293
7514081.061116962	0.15230223415844168
7653919.388230155	0.15377493116171037
7796360.130405221	0.15527503530679782
7941451.71902934	0.15680305664527727
8089243.486805938	0.15819236002429699
8239785.684528512	0.1596053831218976
8393129.498166373	0.16104470281977898
8549327.066268368	0.1625108085021465
8708431.497690724	0.16400419866072985
8870496.889654402	0.16552538106427353
9035578.34613892	0.16707487293118545
9203731.99661823	0.16865320110539603
9375015.01514529	0.17026090223549054
9549485.639791967	0.17189852295717598
9727203.192450536	0.17356662007914297
9908228.099003786	0.17526576077238643
10092621.909870483	0.17690198495547074
10280447.320933098	0.1784732461142065
10471768.194855202	0.18007374871046583
10666649.582795387	0.18170403693237652
10865157.746525371	0.18336466509550037
11067360.180959744	0.1850561978313059
11273325.63710487	0.186779210279149
11483124.14543511	0.1885342882818273
11696827.039703846	0.19032202858477248
11914506.981197748	0.19214303903895016
12136237.983442418	0.1939979388075361
