# Frequency (Hz)	Real Part (Ohm)
1000.0	0.0011480367004
1018.6101701559753	0.0011640410840547146
1037.566678745186	0.0011803433120124859
1056.875971184804	0.0011969489272064717
1076.5446128423157	0.001213863575724763
1096.5792912678098	0.0012310930087301077
1116.9868184678226	0.0012486430844153727
1137.7741332214914	0.001266519769995392
1158.9483034398106	0.0012847291437358787
1180.5165285688054	0.001303277397020111
1202.4861420374123	0.001322170836454058
1224.8646137509306	0.001341415886010702
1247.6595526308697	0.001361019089214257
1270.8787092020582	0.0013803109577120224
1294.529978227916	0.0013993127238794345
1318.6214013947485	0.0014186681161484844
1343.1611700460153	0.0014383837155610972
1368.1576279674719	0.0014584662256335067
1393.619274224142	0.001478922474635522
1419.5547660501015	0.0014997594179122188
1445.9729217920194	0.0015209841402488242
1472.882723907502	0.0015426038582796273
1500.2933220192183	0.0015646259229417088
1528.2140360258693	0.0015870578219743365
1556.654359271062	0.001609907182464884
1585.6239617711371	0.0016331416898154969
1615.132693503091	0.0016552308388544964
1645.1905877536624	0.0016777310707157113
1675.807864530767	0.0017006500357204123
1706.9949340384078	0.001723995526563651
1738.7624002162504	0.0017477754809638562
1771.1210643450886	0.0017719979843617516
1804.0819287193826	0.0017966712726694837
1837.6562003881704	0.0018218037350709307
1871.8552949655793	0.0018474039168741082
1906.690840512252	0.0018734805224166658
1942.1746814890264	0.001900042418025462
1978.3188827841643	0.0019270986350312018
2015.1357338155585	0.001953606142438099
2052.6377527092523	0.0019796931669234866
2090.8376905557498	0.0020062656753734092
2129.748535745521	0.002033332702727059
2169.3835183851843	0.0020609034520653736
2209.756114795903	0.0020889872977402045
2250.880052095462	0.002117593788561676
2292.7693128656488	0.0021467326510449013
2335.438139906479	0.002176413792717092
2378.9010410788933	0.0022066473054862244
2423.1727942376006	0.002237443469072404
2468.2684522556924	0.002268812754503073
2514.2033481427966	0.002300647936954916
2560.9931002584594	0.0023308148800470717
2608.6536176225477	0.0023615432350832556
2657.2011053245064	0.002392843450035278
2706.652070033241	0.002424726167313475
2757.0233256095826	0.002457202227385254
2808.3319988231724	0.002490282672460966
2860.5955351757416	0.00252397875024837
2913.831704832789	0.0025583019177769896
2968.0586086656026	0.0025932638452936065
3023.2946844057765	0.0026288764202302885
3079.5587129142264	0.0026651517512462364
3136.8698245668766	0.0027021021723448533
3195.2475057592133	0.0027381349451589725
3254.711605531848	0.00277357816362491
3315.282342319423	0.0028096809864173755
3376.9803108250912	0.00284645568888512
3439.8264890229243	0.0028839147748232234
3503.8422452906757	0.0029220709807245247
3569.0493456752292	0.002960937280110152
3635.4699612933177	0.0030005268879406805
3703.126675869927	0.003040853265109345
3772.0424934169973	0.0030819301230188907
3842.240846055061	0.0031237714282436077
3913.745601980384	0.0031663914072781025
3986.581073580439	0.003209548917762821
4060.7720257003657	0.0032503275392400523
4136.343684063274	0.0032918650578016976
4213.321743847289	0.003334175596651635
4291.732378422157	0.0033772735418289576
4371.602248248501	0.0034211735470994044
4452.958509942655	0.0034658905389377847
4535.828825510186	0.003511439721603138
4620.241371751313	0.0035578365823083612
4706.224849841281	0.0036050968964860095
4793.808495089106	0.0036532367331521274
4883.02208687788	0.0037022724603698876
4973.895958790063	0.0037522207508148882
5066.461008921268	0.0038006944055114485
5160.7487103859075	0.0038483664895033473
5256.791122018419	0.003896925759090024
5354.620899273607	0.003946388724946364
5454.271305329836	0.003996772205013707
5555.7762223988775	0.0040480933302181514
5659.170163246242	0.004100369550295247
5764.488282925873	0.004153618639723088
5871.766390733255	0.0042078587037658365
5981.040962380945	0.004263108184629691
6092.349152400711	0.004319385867733448
6205.7288067765	0.004376710888095749
6321.218475812449	0.004434617798923315
6438.8574272404185	0.004489197453763169
6558.685659571435	0.00454479284526665
6680.743915695614	0.004601422876465893
6805.073696735206	0.004659106802181693
6931.717276155407	0.004717864235570334
7060.717714137772	0.00477771515479226
7192.118872221193	0.004838679909804903
7325.96542821523	0.004900779229281843
7462.302891391108	0.004964034227660821
7601.17761795533	0.00502846641232285
7742.636826811269	0.005094097690904958
7886.728615614156	0.005160950378749037
8033.501977124735	0.005225507958388994
8183.00681586739	0.005289007117328509
8335.293965098195	0.005353688006420654
8490.415204088747	0.00541957261786464
8648.423275731726	0.005486683353138261
8809.37190447399	0.005555043030614614
8973.31581458352	0.00562467489332061
9140.310748756232	0.005695602616839845
9310.413487069076	0.005767850317362546
9483.681866285926	0.005841442559885355
9660.174799522645	0.005916404366563671
9839.952296278227	0.00599276122521947
10023.075482838643	0.006069689425191222
10209.606623060476	0.006142046409737363
10399.609139541202	0.006215749970077876
10593.1476351837	0.006290825166217425
10790.287915161836	0.006367297524531625
10991.097009294961	0.00644519304644628
11195.643194838794	0.006524538217278165
11403.99601970033	0.006605360015240276
11616.22632608502	0.006687685920614776
11832.40627458378	0.006771543925096539
12052.609368708414	0.0068569625413106485
12276.910479883603	0.006943970812507
12505.385872903913	0.0070325983224352835
12738.113231864783	0.0071177486685805366
12975.171686575868	0.007201541599919783
13216.641839466038	0.007286893931969119
13462.60579298911	0.007373834685441113
13713.147177539455	0.007462393421128701
13968.351179887397	0.00755260024995623
14228.30457214352	0.007644485843217473
14493.09574126215	0.00773808144300419
14762.81471909391	0.0078334188728288
15037.553212997384	0.007930530548444665
15317.404637020798	0.008029449488867876
15602.46414366368	0.008130209327604011
15892.828656229764	0.008231435341236843
16188.596901781993	0.008326486925965985
16489.86944471065	0.008423307436860525
16796.74872092653	0.008521929793937394
17109.339072690134	0.008622387529860652
17427.746784089173	0.008724714801342924
17752.08011717636	0.00882894640075909
18082.44934877952	0.00893511776797601
18418.96680799711	0.009043265002402526
18761.746914391195	0.009153424875263619
19110.90621689136	0.009265634842103021
19466.56343342263	0.009379933055518506
19828.83949127071	0.009496358378134171
20197.857568198782	0.009607639519111158
20573.743134329114	0.009717232735561125
20956.623994804308	0.009828865500417169
21346.630333242454	0.009942575770022175
21743.8947560008	0.010058402207093002
22148.55233726359	0.010176384193866276
22560.74066496859	0.010296561845488744
22980.599887588487	0.010418976023656847
23408.272761782944	0.010543668350510179
23843.904700937208	0.010670681222783385
24287.643824604504	0.010800057826221588
24739.64100886812	0.01093184215026398
25200.049937640895	0.011063838837592817
25669.027154919517	0.011187633314251296
26146.732118010917	0.011313731627184742
26633.327251749808	0.011442176651178264
27128.978003724646	0.011573012058923993
27633.852900531667	0.011706282335870294
28148.123605075813	0.011842032795347318
28671.964974937695	0.011980309593973944
29205.55512182745	0.012121159747351638
29749.075472144435	0.012264631146050203
30302.71082866393	0.012410772571891026
30866.649433372742	0.012559633714533619
31441.08303147265	0.012711265188370388
32026.206936576502	0.01285545045994064
32622.220097116733	0.012997608525943971
33229.325163989684	0.013142412177744632
33847.72855945983	0.013289910650144543
34477.640547344636	0.013440154094213546
35119.275304507275	0.013593193594341496
35772.850993678774	0.01374908118560743
36438.58983763541	0.01390786987147199
37116.71819475767	0.01406961364179937
37807.466635993485	0.014234367491214192
38511.070023255685	0.014402187437800477
39227.76758927723	0.014573130542148316
39957.803018952654	0.014743813542602303
40701.42453219439	0.014903779823724381
41458.88496832911	0.015066723104557343
42230.441872066716	0.015232698787572376
43016.35758106799	0.015401763306290095
43816.89931514194	0.015573974144468462
44632.33926710397	0.01574938985564804
45462.95469532399	0.0159280700830607
46309.02801799736	0.016110075579909015
47170.84690917023	0.016295468230023032
48048.704396551344	0.016484311068901303
48942.89896114532	0.016676668305143843
49853.73463873894	0.01687260534228359
50781.5211232767	0.0170579809886049
51726.57387216024	0.017241020464076235
52689.21421350677	0.017427466335331324
53669.76945540476	0.01761738199597536
54668.57299720181	0.01781083201937926
55685.96444286408	0.018007882180635384
56722.28971644549	0.018208599478921773
57777.90117970507	0.01841305216028249
58853.1577519145	0.01862130974083218
59948.42503189408	0.01883344303039217
61064.07542232036	0.01904952415656662
62200.48825634718	0.019269626589266693
63358.04992658254	0.019488690243979413
64537.15401646702	0.0196939798032237
65738.20143409586	0.019903089836096767
66961.60054853215	0.020116091442262923
68207.76732865692	0.020333057044563355
69477.1254846024	0.02055406041364056
70770.10661181889	0.02077917669302134
72087.15033782135	0.021008482424666283
73428.70447166759	0.02124205557499487
74795.22515621828	0.021479975561394967
76187.17702322999	0.02172232327922545
77605.0333513357	0.021969181129321672
79049.2762269642	0.022220633046012527
80520.39670825469	0.022457384124642023
82018.8949920221	0.0226915792268628
83545.28058382872	0.022930132739785586
85100.07247122246	0.023173125774175157
86683.79930019773	0.02342064095028144
88296.99955494082	0.023672762425931245
89940.22174092053	0.0239295759251429
91614.0245713852	0.0241911687672732
93318.9771573324	0.024457629896707144
95055.65920101192	0.0247290499130998
96824.66119303115	0.02500552110218126
98626.5846131283	0.025287137467134777
100462.04213468132	0.025566522001725968
102331.65783302448	0.02582847985092019
104236.06739764012	0.026095312780261608
106175.9183482999	0.026367111515821287
108151.87025522892	0.02664396847209794
110164.59496336569	0.026925977783439737
112214.77682079801	0.027213235336051182
114303.11291144785	0.027505838800595307
116430.31329208757	0.02780388766540283
118597.10123376705	0.02810748327029924
120804.21346773289	0.028416728841061355
123052.40043592616	0.028731729524515335
125342.42654613995	0.02905259242428764
127675.07043192645	0.02935333395092012
130051.12521734099	0.02965146988692566
132471.39878661174	0.029955154183429845
134936.71405883064	0.03026449009636566
137447.90926775365	0.030579582803276575
140005.8382468096	0.030900539439078008
142611.37071941295	0.031227469132484423
145265.39259467812	0.03156048304311415
147968.80626863963	0.03189969439928499
150722.53093107554	0.032245218536513014
153527.5028780421	0.03259717293672785
156384.67583022476	0.03295567726821786
159295.0212572123	0.033310206368281824
162259.5287078087	0.03364300364472196
165279.2061464897	0.03398199433510412
168355.08029612005	0.0343272936999155
171488.19698705408	0.034679019144660865
174679.62151272455	0.03503729025978108
177930.43899185772	0.035402228861315645
181241.75473742394	0.0357739590323213
184614.69463245454	0.0361526071650614
188050.40551285836	0.03653830200398112
191550.0555573528	0.03693117468948137
195114.83468466165	0.037331358802508416
198745.9549580986	0.03773899040997267
202444.65099768018	0.03811947195983061
206212.18039991445	0.03849757435681791
210049.8241653915	0.03888271330374947
213958.88713434213	0.03927501975201712
217940.6984302958	0.03967462709004036
221996.61191199525	0.040081671188619696
226128.00663372793	0.04049629044713468
230336.2873142131	0.04091862584060052
234622.88481422624	0.04134882096760165
238989.25662310526	0.0417870220991166
243436.8873543108	0.042233378228251475
247967.289250216	0.04268804112089982
252582.00269627848	0.04313625789564794
257282.59674479323	0.043557709589745884
262070.66964838552	0.04398700457158357
266947.8494034318	0.04442428880608023
271915.7943036019	0.04486971097458752
276976.1935036891	0.04532342252544192
282130.76759394706	0.04578557772545946
287381.2691851069	0.04625633371238784
292729.4835042813	0.0467358505483348
298177.22900196735	0.04722429127419149
303726.3579703311	0.047721821965067426
309378.75717301364	0.04822861178675839
315136.34848664823	0.04874483305326439
321001.08955431683	0.04922483422425761
326974.97445117676	0.04970309496570616
333060.03436245886	0.05019025622093192
339258.33827409917	0.05068648363001084
345571.9936762143	0.05119194591560882
352003.1472796675	0.051706814940349115
358553.9857459817	0.05223126576524798
365226.7364308175	0.052765476709236585
372023.6681413066	0.053309629409792
378947.09190746717	0.053863908884695666
385999.36176797637	0.05442850359494111
393182.87557057705	0.05500360550881352
400500.07578736113	0.05556882466644028
407953.45034524484	0.056101411920992786
415545.53347188793	0.05664391071497547
423278.90655735444	0.057196505503823485
431156.19903182285	0.05775938417571937
439180.0892596086	0.05833273811547634
447353.3054498463	0.058916762269611796
455678.6265841068	0.05951165521263097
464158.8833612772	0.06011761921454419
472796.9591600391	0.06073486030964156
481595.79101923504	0.06136358836654587
490558.37063650455	0.06200401715957101
499687.7453854889	0.0626563644414072
508987.0193519675	0.06326079815918213
518459.3543892913	0.06386472043388157
528107.971193433	0.06447988180487405
537936.1503980698	0.06510649143365409
547947.2336900292	0.06574476237424717
558144.6249454955	0.06639491164565016
568531.7913873753	0.0670571603056209
579112.2647641759	0.06773173352583918
589889.6425508494	0.06841886066846839
600867.5891719692	0.06911877536414077
612049.837247669	0.06983171559139416
623440.1888627863	0.0705579237575879
635042.5168595961	0.07126952263528491
646860.7661546321	0.07194164994838385
658898.9550799957	0.07262628566514612
671161.1767496272	0.07332366256909204
683651.6004510238	0.07403401777588339
696374.4730628222	0.07475759281394424
709334.1204987989	0.07549463370658402
722534.9491787221	0.07624539105564783
735981.4475265755	0.07701012012672338
749678.1874966878	0.07778908093593505
763629.8261282243	0.07858253833835092
777841.1071286482	0.07939076211803722
792316.8624866261	0.08021402707978771
807062.0141149492	0.0809742860751877
822081.575524054	0.08173609116723606
837380.6535266489	0.08251207358167306
852964.4499741016	0.08330249716088074
868838.2635251193	0.08410763065739289
885007.4914473438	0.08492774782527333
901477.6314524917	0.08576312751319584
918254.2835656281	0.08661405375925545
935343.1520292377	0.0874808158875444
952750.0472427299	0.08836370860652566
970480.8877380306	0.08926303210923654
988541.7021919573	0.09017909217535813
1006938.6314760271	0.09107408833064673
1025677.9307444209	0.09192163204854692
1044765.9715608053	0.09278494869925197
1064209.2440647245	0.09366433181972501
1084014.359178331	0.09456008040970239
1104188.0508541602	0.09547249903335617
1124737.1783647507	0.09640189792284966
1145668.7286348727	0.0973485930838195
1166989.8186171474	0.09831290640282071
1188707.6977119034	0.09929516575677222
1210829.7502320393	0.10029570512443804
1233363.4979137746	0.1013148646999839
1256316.6024741214	0.10235299100864689
1279696.8682159416	0.1033086030692582
1303512.2446815087	0.10426897129523166
1327770.829355429	0.10524721213730288
1352480.8704178738	0.10624365820789855
1377650.769549055	0.1072586483094194
1403289.084785873	0.10829252754943605
1429404.533431761	0.10934564745803016
1456005.9950206485	0.11041836610731783
1483102.514336103	0.11151104823319825
1510703.3044866556	0.11262406535936781
1538817.7500383465	0.11375779592364177
1567455.410205595	0.1149126254066279
1596626.022101425	0.1160376227548525
1626339.5040481905	0.11710585768538104
1656605.9589499151	0.11819397264973339
1687435.6777273756	0.11930233761872146
1718839.1428171454	0.12043132944837734
1750827.0317357269	0.12158133200808793
1783410.220710006	0.1227527363111143
1816599.7883753285	0.1239459406475417
1850407.019542302	0.12516135071970075
1884843.4090337954	0.1263993797801119
1919920.6655932867	0.12766044877199553
1955650.715865947	0.12894498647239624
1992045.7084538713	0.13025342963797348
2029118.0180466783	0.13145411686588948
2066880.2496290822	0.13266436420136282
2105345.242766708	0.13389713444568027
2144526.0759716653	0.1351528467540074
2184436.0711494284	0.13643192808205978
2225088.7981283693	0.13773481333127036
2266498.079273693	0.13906194549666245
2308677.994187172	0.14041377581747214
2351642.884494346	0.14179076393057374
2395407.358720879	0.14319337802676327
2439986.29725955	0.1446220950099459
2485394.857429798	0.14607740065929029
2531648.478631358	0.14749101746473914
2578762.8875937983	0.14883703501605922
2626754.1037238385	0.1502081021830426
2675638.4445520453	0.1516046851432986
2725432.531281028	0.15302725875008197
2776153.2944368036	0.15447630669374712
2827817.979625338	0.1559523216662077
2880444.1533962977	0.15745580552845886
2934049.709215787	0.15898726948121314
2988652.873550383	0.16054723423871592
3044272.2120643063	0.16213623020579335
3100926.6359319235	0.16375479765819484
3158635.408267819	0.16540348692629483
3217418.1506763715	0.16691174790718905
3277294.849923382	0.16843656498920626
3338285.8647317644	0.16998975917657674
3400411.9327037027	0.17157185857205906
3463694.1773717343	0.17318340110649533
3528154.1153808828	0.17482493472171087
3593813.6638046256	0.17649701755682234
3660695.147596906	0.1782002181380103
3728821.30718283	0.17993511557182354
3798215.306190736	0.18170229974208363
3868900.7393279755	0.18350237151044896
3940901.6404034477	0.18533594292071656
4014242.490499326	0.1871118598143804
4088948.226294856	0.18880761505813817
4165044.248545185	0.19053492859552554
4242556.430717777	0.19229438773175622
4321511.127789762	0.19408659070189463
4401935.1852088785	0.19591214687426153
4483855.948021181	0.1977716769576251
4567301.270168747	0.19966581321225063
4652299.523960189	0.20159519966487316
4738879.609717651	0.20356049232767556
4827070.965603188	0.2055623594213393
4916903.577628021	0.20760148160224529
5008407.989848212	0.20967855219390721
5101615.314749833	0.21157290808747983
5196557.243827657	0.21349381370726023
5293266.058360566	0.2154504677074786
5391774.640387494	0.21744353537157693
5492116.483887789	0.21947369436403694
5594325.706169377	0.22154163496079007
5698437.0594691355	0.22364806028392123
5804485.942768984	0.225793686540737
5912508.413831869	0.2279792432672827
6022541.201461928	0.2302054735763955
6134621.717992506	0.23247313441036702
6248788.072006888	0.23478299679831477
6365079.081295578	0.23701378969864761
6483534.286054714	0.23914994398575123
6604193.962330305	0.2413258524676177
6727099.135712336	0.24354225497657533
6852291.595284057	0.24579990511335878
6979813.907830667	0.24809957050334064
7109709.432312423	0.2504420330575314
7242022.334607315	0.2528280892384402
7376797.60252773	0.255258550330877
7514081.061116962	0.25773424271780165
7653919.388230155	0.2602560081613012
7796360.130405221	0.26282470408879705
7941451.71902934	0.26544120388458314
8089243.486805938	0.2678202799279076
8239785.684528512	0.27023997574344805
8393129.498166373	0.27270470250984186
8549327.066268368	0.2752152982607456
8708431.497690724	0.277772616625767
8870496.889654402	0.2803775271207043
9035578.34613892	0.2830309154431934
9203731.99661823	0.2857336837738542
9375015.01514529	0.2884867510830405
9549485.639791967	0.29129105344330164
9727203.192450536	0.294147544347656
9908228.099003786	0.2970571950337894
10092621.909870483	0.2998591547112133
10280447.320933098	0.3025499202379867
10471768.194855202	0.3052907613690632
10666649.582795387	0.3080826100199595
10865157.746525371	0.3109264154492987
11067360.180959744	0.3138231445815688
11273325.63710487	0.3167737823358859
11483124.14543511	0.3197793319608794
11696827.039703846	0.3228408153758062
11914506.981197748	0.3259592735180147
12136237.983442418	0.32913576669687417
12362095.437367693	0.3323713749542911
12592156.13694151	0.3356626785512603
12826498.3052806	0.3386548533176724
