# Frequency (Hz)	Imaginary Part (Ohm/m)
1e-05	24990854.11992991
1.0054843073148261e-05	24990854.119929798
1.0109986922563737e-05	24990854.119929682
1.016543319779595e-05	24990854.119929563
1.0221183557440998e-05	24990854.119929448
1.0277239669191254e-05	24990854.11992933
1.03336032098852e-05	24990854.119929202
1.0390275865557684e-05	24990854.119929086
1.0447259331490224e-05	24990854.119928963
1.05045553122618e-05	24990854.11992884
1.0562165521799813e-05	24990854.119928718
1.0620091683431424e-05	24990854.119928595
1.0678335529934991e-05	24990854.119928475
1.0736898803591982e-05	24990854.119928345
1.0795783256239048e-05	24990854.119928222
1.0854990649320517e-05	24990854.119928095
1.0914522753940955e-05	24990854.11992797
1.097438135091823e-05	24990854.119927842
1.103456823083674e-05	24990854.11992771
1.1095085194101066e-05	24990854.11992759
1.1155934050989693e-05	24990854.119927455
1.1217116621709254e-05	24990854.119927324
1.127863473644893e-05	24990854.119927194
1.134049023543529e-05	24990854.119927064
1.1402684968987202e-05	24990854.119926933
1.1465220797571276e-05	24990854.119926803
1.152809959185747e-05	24990854.11992667
1.1591323232775138e-05	24990854.119926527
1.1654893611569162e-05	24990854.119926397
1.1718812629856612e-05	24990854.119926263
1.1783082199683587e-05	24990854.119926125
1.1847704243582509e-05	24990854.119925987
1.1912680694629486e-05	24990854.11992585
1.1978013496502206e-05	24990854.119925708
1.2043704603538158e-05	24990854.11992557
1.2109755980792949e-05	24990854.119925424
1.2176169604099172e-05	24990854.11992529
1.2242947460125471e-05	24990854.11992515
1.231009154643607e-05	24990854.119925003
1.2377603871550368e-05	24990854.119924862
1.2445486455003133e-05	24990854.119924717
1.251374132740485e-05	24990854.119924568
1.2582370530502579e-05	24990854.119924422
1.2651376117240868e-05	24990854.119924273
1.2720760151823269e-05	24990854.119924128
1.2790524709774036e-05	24990854.119923986
1.2860671878000315e-05	24990854.119923834
1.2931203754854411e-05	24990854.119923685
1.3002122450196667e-05	24990854.119923536
1.3073430085458519e-05	24990854.11992338
1.3145128793706067e-05	24990854.11992323
1.3217220719703721e-05	24990854.119923074
1.3289708019978464e-05	24990854.11992293
1.3362592862884308e-05	24990854.11992276
1.3435877428667269e-05	24990854.11992261
1.3509563909530415e-05	24990854.119922448
1.3583654509699565e-05	24990854.119922295
1.3658151445489154e-05	24990854.119922135
1.3733056945368653e-05	24990854.11992198
1.3808373250029063e-05	24990854.11992182
1.3884102612450019e-05	24990854.11992166
1.3960247297967276e-05	24990854.119921494
1.4036809584340299e-05	24990854.119921334
1.4113791761820519e-05	24990854.119921174
1.4191196133219775e-05	24990854.119921003
1.4269025013979325e-05	24990854.119920842
1.4347280732238928e-05	24990854.119920675
1.4425965628906611e-05	24990854.119920503
1.4505082057728624e-05	24990854.11992034
1.4584632385359979e-05	24990854.119920168
1.4664618991435059e-05	24990854.119920004
1.4745044268638926e-05	24990854.11991983
1.4825910622778827e-05	24990854.119919654
1.4907220472856292e-05	24990854.119919483
1.4988976251139303e-05	24990854.119919308
1.5071180403235182e-05	24990854.119919132
1.5153835388163678e-05	24990854.119918957
1.5236943678430655e-05	24990854.11991878
1.5320507760101867e-05	24990854.119918603
1.5404530132877447e-05	24990854.119918425
1.5489013310166612e-05	24990854.119918246
1.5573959819163e-05	24990854.119918067
1.5659372200920045e-05	24990854.11991789
1.5745253010427136e-05	24990854.119917702
1.5831604816685976e-05	24990854.11991752
1.5918430202787564e-05	24990854.119917337
1.600573176598926e-05	24990854.119917147
1.609351211779259e-05	24990854.11991696
1.6181773884021444e-05	24990854.11991677
1.6270519704900444e-05	24990854.11991658
1.6359752235134053e-05	24990854.119916394
1.644947414398591e-05	24990854.1199162
1.6539688115358814e-05	24990854.119916014
1.663039684787482e-05	24990854.119915824
1.672160305495608e-05	24990854.119915627
1.681330946490596e-05	24990854.119915433
1.6905518820990782e-05	24990854.119915236
1.6998233881521672e-05	24990854.119915035
1.7091457419937227e-05	24990854.119914845
1.7185192224886395e-05	24990854.119914643
1.7279441100312033e-05	24990854.11991444
1.737420686553458e-05	24990854.11991424
1.7469492355336536e-05	24990854.119914044
1.7565300420047172e-05	24990854.119913828
1.7661633925627953e-05	24990854.119913626
1.7758495753758058e-05	24990854.11991342
1.78558888019207e-05	24990854.119913213
1.795381598348976e-05	24990854.119913008
1.8052280227817055e-05	24990854.1199128
1.8151284480319767e-05	24990854.119912587
1.8250831702568672e-05	24990854.119912375
1.8350924872376695e-05	24990854.119912162
1.8451566983888096e-05	24990854.11991195
1.8552761047667836e-05	24990854.11991173
1.8654510090791747e-05	24990854.119911514
1.8756817156937173e-05	24990854.119911302
1.885968530647382e-05	24990854.119911082
1.8963117616555433e-05	24990854.119910855
1.9067117181211778e-05	24990854.119910635
1.9171687111441346e-05	24990854.119910415
1.9276830535304182e-05	24990854.119910195
1.9382550598015615e-05	24990854.119909965
1.948885046204026e-05	24990854.11990974
1.959573330718678e-05	24990854.119909514
1.9703202330702767e-05	24990854.11990929
1.981126074737054e-05	24990854.119909063
1.991991178960323e-05	24990854.11990883
2.0029158707541644e-05	24990854.119908594
2.0139004769151228e-05	24990854.119908363
2.0249453260320006e-05	24990854.119908128
2.0360507484956766e-05	24990854.119907886
2.0472170765090087e-05	24990854.11990765
2.058444644096744e-05	24990854.119907413
2.0697337871155287e-05	24990854.119907174
2.0810848432639447e-05	24990854.119906932
2.092498152092631e-05	24990854.11990669
2.103974055014413e-05	24990854.119906444
2.115512895314533e-05	24990854.119906202
2.1271150181609113e-05	24990854.11990596
2.1387807706144878e-05	24990854.11990571
2.1505105016395782e-05	24990854.119905464
2.1623045621143263e-05	24990854.11990521
2.1741633048412116e-05	24990854.119904954
2.186087084557579e-05	24990854.119904697
2.198076257946265e-05	24990854.119904447
2.2101311836462655e-05	24990854.11990419
2.2222522222634577e-05	24990854.119903933
2.234439736381406e-05	24990854.119903676
2.2466940905721806e-05	24990854.119903415
2.2590156514072775e-05	24990854.119903155
2.2714047874685973e-05	24990854.11990289
2.2838618693594424e-05	24990854.119902626
2.296387269715623e-05	24990854.119902357
2.3089813632165933e-05	24990854.11990209
2.3216445265966794e-05	24990854.119901817
2.3343771386563197e-05	24990854.119901545
2.3471795802734155e-05	24990854.119901273
2.3600522344147148e-05	24990854.119901
2.372995486147287e-05	24990854.11990073
2.386009722650014e-05	24990854.11990045
2.39909533322519e-05	24990854.119900174
2.412252709310157e-05	24990854.1198999
2.425482244489036e-05	24990854.119899612
2.4387843345044683e-05	24990854.11989933
2.4521593772694744e-05	24990854.11989905
2.465607772879348e-05	24990854.119898755
2.4791299236236423e-05	24990854.119898472
2.492726233998176e-05	24990854.11989818
2.506397110717146e-05	24990854.11989789
2.5201429627253114e-05	24990854.119897604
2.5339642012101934e-05	24990854.119897302
2.547861239614398e-05	24990854.119897015
2.5618344936479774e-05	24990854.11989672
2.5758843813008595e-05	24990854.11989642
2.5900113228553743e-05	24990854.119896118
2.6042157408987926e-05	24990854.11989581
2.618498060335984e-05	24990854.119895507
2.6328587084021428e-05	24990854.1198952
2.6472981146755363e-05	24990854.119894896
2.6618167110903767e-05	24990854.119894583
2.6764149319497308e-05	24990854.11989428
2.6910932139385327e-05	24990854.119893968
2.7058519961366146e-05	24990854.119893655
2.720691720031864e-05	24990854.11989334
2.7356128295334158e-05	24990854.119893022
2.750615770984958e-05	24990854.1198927
2.765700993178047e-05	24990854.11989238
2.7808689473655556e-05	24990854.119892057
2.7961200872751598e-05	24990854.119891733
2.8114548691229352e-05	24990854.11989141
2.8268737516269696e-05	24990854.11989108
2.8423771960211075e-05	24990854.119890746
2.8579656660687352e-05	24990854.119890425
2.873639628076678e-05	24990854.11989009
2.8893995509091133e-05	24990854.11988975
2.9052459060016196e-05	24990854.119889412
2.921179167375267e-05	24990854.11988908
2.937199811650821e-05	24990854.119888734
2.9533083180629634e-05	24990854.119888395
2.9695051684746533e-05	24990854.11988805
2.985790847391527e-05	24990854.119887706
3.002165841976417e-05	24990854.11988736
3.0186306420638895e-05	24990854.119887006
3.035185740174913e-05	24990854.119886648
3.05183163153161e-05	24990854.119886298
3.0685688140720366e-05	24990854.119885944
3.085397788465099e-05	24990854.11988559
3.102319058125521e-05	24990854.11988523
3.1193331292289227e-05	24990854.119884863
3.1364405107269324e-05	24990854.119884506
3.1536417143624294e-05	24990854.11988414
3.1709372546848416e-05	24990854.11988376
3.188327649065565e-05	24990854.1198834
3.205813417713397e-05	24990854.119883027
3.223395083690131e-05	24990854.11988265
3.241073172926181e-05	24990854.11988228
3.258848214236346e-05	24990854.1198819
3.276720739335591e-05	24990854.119881522
3.294691282854972e-05	24990854.11988114
3.3127603823576205e-05	24990854.119880747
3.330928578354851e-05	24990854.11988037
3.3491964143222855e-05	24990854.119879976
3.367564436716136e-05	24990854.119879585
3.386033194989567e-05	24990854.119879197
3.404603241609092e-05	24990854.1198788
3.42327513207113e-05	24990854.119878408
3.44204942491861e-05	24990854.11987801
3.460926681757677e-05	24990854.1198776
3.479907467274518e-05	24990854.119877197
3.49899234925221e-05	24990854.119876795
3.518181898587727e-05	24990854.11987639
3.5374766893090404e-05	24990854.119875975
3.556877298592245e-05	24990854.119875565
3.576384306778854e-05	24990854.119875148
3.5959982973931505e-05	24990854.11987473
3.615719857159639e-05	24990854.11987431
3.6355495760206216e-05	24990854.11987389
3.655488047153805e-05	24990854.119873468
3.675535866990062e-05	24990854.119873036
3.695693635231302e-05	24990854.11987261
3.715961954868357e-05	24990854.119872183
3.7363414321990576e-05	24990854.119871747
3.756832676846347e-05	24990854.11987131
3.7774363017765534e-05	24990854.119870875
3.798152923317676e-05	24990854.119870435
3.818983161177856e-05	24990854.119869996
3.839927638463894e-05	24990854.119869545
3.8609869816999246e-05	24990854.119869106
3.88216182084611e-05	24990854.119868644
3.903452789317507e-05	24990854.119868197
3.92486052400304e-05	24990854.119867742
3.946385665284502e-05	24990854.119867284
3.9680288570557464e-05	24990854.119866822
3.9897907467419386e-05	24990854.119866364
4.011671985318913e-05	24990854.119865898
4.033673227332681e-05	24990854.119865425
4.05579513091896e-05	24990854.11986496
4.0780383578228864e-05	24990854.119864482
4.100403573418836e-05	24990854.119864013
4.1228914467302764e-05	24990854.119863536
4.1455026504498136e-05	24990854.119863052
4.1682378609593064e-05	24990854.119862568
4.191097758350092e-05	24990854.11986208
4.2140830264433634e-05	24990854.119861595
4.2371943528105714e-05	24990854.119861104
4.260432428794022e-05	24990854.119860608
4.283797949527579e-05	24990854.119860116
4.3072916139574105e-05	24990854.119859613
4.330914124862927e-05	24990854.11985911
4.3546661888777876e-05	24990854.119858604
4.378548516511076e-05	24990854.1198581
4.402561822168499e-05	24990854.11985759
4.426706824173792e-05	24990854.119857077
4.45098424479019e-05	24990854.119856555
4.475394810242069e-05	24990854.11985604
4.499939250736615e-05	24990854.11985552
4.524618300485703e-05	24990854.119854994
4.549432697727843e-05	24990854.119854465
4.5743831847503015e-05	24990854.119853932
4.599470507911245e-05	24990854.119853403
4.62469541766211e-05	24990854.119852867
4.650058668570028e-05	24990854.119852327
4.675561019340437e-05	24990854.119851783
4.701203232839722e-05	24990854.11985124
4.72698607611806e-05	24990854.11985069
4.752910320432395e-05	24990854.119850144
4.7789767412694555e-05	24990854.11984959
4.8051861183689835e-05	24990854.119849034
4.8315392357470556e-05	24990854.119848475
4.858036881719523e-05	24990854.119847905
4.884679848925632e-05	24990854.11984734
4.9114689343516796e-05	24990854.11984677
4.9384049393548754e-05	24990854.119846195
4.9654886696873534e-05	24990854.11984562
4.992720935520206e-05	24990854.119845044
5.0201025514677654e-05	24990854.11984446
5.047634336611947e-05	24990854.119843878
5.0753171145267954e-05	24990854.11984329
5.103151713303057e-05	24990854.119842693
5.131138965572993e-05	24990854.119842105
5.1592797085352634e-05	24990854.1198415
5.187574783980018e-05	24990854.1198409
5.216025038314007e-05	24990854.119840298
5.244631322585949e-05	24990854.119839687
5.273394492511963e-05	24990854.11983908
5.30231540850121e-05	24990854.11983846
5.3313949356815684e-05	24990854.119837847
5.360633943925554e-05	24990854.119837224
5.3900333078763195e-05	24990854.119836602
5.419593906973862e-05	24990854.11983597
5.449316625481266e-05	24990854.11983534
5.479202352511186e-05	24990854.119834702
5.509251982052475e-05	24990854.119834065
5.539466412996866e-05	24990854.11983342
5.5698465491658986e-05	24990854.119832776
5.600393299337949e-05	24990854.11983213
5.6311075772753994e-05	24990854.119831473
5.661990301752024e-05	24990854.119830817
5.693042396580397e-05	24990854.11983016
5.724264790639567e-05	24990854.11982949
5.755658417902873e-05	24990854.119828828
5.7872242174658186e-05	24990854.119828153
5.8189631335742055e-05	24990854.11982748
5.850876115652358e-05	24990854.1198268
5.882964118331572e-05	24990854.119826116
5.915228101478598e-05	24990854.119825438
5.947669030224402e-05	24990854.11982475
5.980287874993014e-05	24990854.11982405
6.013085611530605e-05	24990854.11982335
6.046063220934598e-05	24990854.11982265
6.079221689683071e-05	24990854.11982195
6.112562009664238e-05	24990854.119821243
6.146085178206167e-05	24990854.119820524
6.179792198106547e-05	24990854.11981981
6.213684077662729e-05	24990854.11981909
6.247761830701861e-05	24990854.119818367
6.28202647661127e-05	24990854.119817637
6.316479040368881e-05	24990854.119816903
6.35112055257391e-05	24990854.11981617
6.385952049477734e-05	24990854.119815428
6.420974573014813e-05	24990854.119814683
6.45618917083391e-05	24990854.119813934
6.491596896329417e-05	24990854.11981318
6.527198808672846e-05	24990854.11981243
6.562995972844575e-05	24990854.119811665
6.598989459665622e-05	24990854.1198109
6.635180345829713e-05	24990854.11981013
6.671569713935537e-05	24990854.11980936
6.708158652519047e-05	24990854.119808577
6.744948256086071e-05	24990854.119807795
6.781939625145034e-05	24990854.119807016
6.819133866239926e-05	24990854.119806226
6.856532091983325e-05	24990854.119805425
6.894135421089728e-05	24990854.11980463
6.931944978409e-05	24990854.119803824
6.96996189496006e-05	24990854.11980301
7.008187307964648e-05	24990854.119802203
7.046622360881392e-05	24990854.119801387
7.085268203439976e-05	24990854.11980057
7.124125991675608e-05	24990854.11979974
7.163196887963497e-05	24990854.11979891
7.202482061053695e-05	24990854.11979807
7.241982686106021e-05	24990854.119797237
7.281699944725277e-05	24990854.119796395
7.321635024996503e-05	24990854.119795542
7.361789121520563e-05	24990854.11979469
7.402163435449926e-05	24990854.119793825
7.442759174524503e-05	24990854.119792964
7.483577553107837e-05	24990854.119792096
7.524619792223415e-05	24990854.11979123
7.565887119591176e-05	24990854.119790345
7.6073807696643e-05	24990854.119789466
7.649101983666037e-05	24990854.119788583
7.691052009626892e-05	24990854.119787686
7.733232102421997e-05	24990854.11978679
7.775643523808558e-05	24990854.11978589
7.818287542463662e-05	24990854.119784977
7.861165434022194e-05	24990854.11978407
7.90427848111506e-05	24990854.119783152
7.947627973407463e-05	24990854.119782243
7.991215207637538e-05	24990854.119781304
8.035041487655118e-05	24990854.119780377
8.079108124460797e-05	24990854.11977944
8.123416436245049e-05	24990854.119778495
8.167967748427727e-05	24990854.119777553
8.212763393697676e-05	24990854.1197766
8.257804712052669e-05	24990854.119775638
8.303093050839386e-05	24990854.119774677
8.348629764793785e-05	24990854.11977371
8.394416216081602e-05	24990854.119772736
8.440453774339154e-05	24990854.119771756
8.486743816714215e-05	24990854.119770776
8.533287727907258e-05	24990854.11976978
8.580086900212937e-05	24990854.11976879
8.627142733561618e-05	24990854.119767785
8.674456635561339e-05	24990854.119766783
8.722030021539891e-05	24990854.119765773
8.769864314587137e-05	24990854.11976476
8.817960945597661e-05	24990854.119763732
8.866321353313454e-05	24990854.119762704
8.914946984367011e-05	24990854.119761672
8.963839293324662e-05	24990854.119760633
9.01299974272997e-05	24990854.11975959
9.06242980314755e-05	24990854.11975854
9.11213095320705e-05	24990854.11975748
9.162104679647358e-05	24990854.11975642
9.212352477361151e-05	24990854.11975535
9.2628758494395e-05	24990854.119754273
9.313676307216889e-05	24990854.1197532
9.364755370316481e-05	24990854.119752105
9.416114566695465e-05	24990854.119751018
9.467755432690834e-05	24990854.119749926
9.519679513065307e-05	24990854.119748816
9.57188836105361e-05	24990854.11974771
9.624383538408837e-05	24990854.119746592
9.677166615449224e-05	24990854.11974547
9.730239171105104e-05	24990854.119744346
9.783602792966204e-05	24990854.119743213
9.837259077329022e-05	24990854.119742066
9.891209629244658e-05	24990854.11974092
9.945456062566782e-05	24990854.119739767
0.0001	24990854.119738605
0.00010054843073148261	24990854.119737443
0.00010109986922563747	24990854.11973627
0.0001016543319779595	24990854.119735092
0.00010221183557440998	24990854.119733907
0.00010277239669191254	24990854.119732715
0.0001033360320988521	24990854.11973152
0.00010390275865557683	24990854.11973031
0.00010447259331490224	24990854.1197291
0.00010504555312261801	24990854.119727883
0.00010562165521799824	24990854.119726654
0.00010620091683431424	24990854.11972543
0.00010678335529934992	24990854.119724188
0.00010736898803591982	24990854.119722944
0.00010795783256239058	24990854.11972169
0.00010854990649320517	24990854.119720433
0.00010914522753940955	24990854.11971917
0.0001097438135091823	24990854.119717896
0.00011034568230836751	24990854.119716614
0.00011095085194101066	24990854.119715333
0.00011155934050989694	24990854.119714037
0.00011217116621709244	24990854.11971274
0.0001127863473644893	24990854.11971143
0.00011340490235435289	24990854.119710114
0.00011402684968987202	24990854.11970879
0.00011465220797571265	24990854.11970746
0.0001152809959185747	24990854.119706124
0.00011591323232775138	24990854.119704783
0.00011654893611569162	24990854.11970343
0.00011718812629856598	24990854.119702075
0.00011783082199683586	24990854.119700704
0.00011847704243582509	24990854.119699333
0.00011912680694629486	24990854.11969795
0.00011978013496502219	24990854.11969656
0.00012043704603538159	24990854.119695168
0.00012109755980792949	24990854.119693764
0.00012176169604099172	24990854.11969235
0.00012242947460125485	24990854.119690932
0.0001231009154643607	24990854.119689506
0.00012377603871550368	24990854.119688068
0.00012445486455003134	24990854.119686633
0.00012513741327404863	24990854.119685173
0.0001258237053050258	24990854.119683716
0.00012651376117240869	24990854.11968225
0.0001272076015182327	24990854.119680777
0.00012790524709774048	24990854.11967929
0.00012860671878000315	24990854.1196778
0.0001293120375485441	24990854.119676303
0.00013002122450196665	24990854.119674794
0.0001307343008545852	24990854.119673282
0.00013145128793706068	24990854.119671755
0.0001321722071970372	24990854.119670223
0.00013289708019978452	24990854.11966868
0.00013362592862884307	24990854.11966713
0.00013435877428667268	24990854.119665578
0.00013509563909530416	24990854.119664006
0.0001358365450969955	24990854.119662438
0.00013658151445489154	24990854.11966085
0.00013733056945368653	24990854.119659256
0.00013808373250029062	24990854.11965766
0.00013884102612450033	24990854.11965605
0.00013960247297967274	24990854.119654424
0.000140368095843403	24990854.119652797
0.0001411379176182052	24990854.119651165
0.0001419119613321979	24990854.11964952
0.00014269025013979324	24990854.119647868
