# Frequency (Hz)	Imaginary Part (Ohm/m)
1e-05	-341118619.98389393
1.0054843073148261e-05	-341118619.9838922
1.0109986922563737e-05	-341118619.98389065
1.016543319779595e-05	-341118619.98388886
1.0221183557440998e-05	-341118619.98388714
1.0277239669191254e-05	-341118619.9838855
1.03336032098852e-05	-341118619.98388374
1.0390275865557684e-05	-341118619.98388195
1.0447259331490224e-05	-341118619.98388016
1.05045553122618e-05	-341118619.9838785
1.0562165521799813e-05	-341118619.9838767
1.0620091683431424e-05	-341118619.9838748
1.0678335529934991e-05	-341118619.9838732
1.0736898803591982e-05	-341118619.9838713
1.0795783256239048e-05	-341118619.9838695
1.0854990649320517e-05	-341118619.9838677
1.0914522753940955e-05	-341118619.9838659
1.097438135091823e-05	-341118619.98386407
1.103456823083674e-05	-341118619.98386204
1.1095085194101066e-05	-341118619.98386025
1.1155934050989693e-05	-341118619.98385847
1.1217116621709254e-05	-341118619.9838565
1.127863473644893e-05	-341118619.9838547
1.134049023543529e-05	-341118619.9838528
1.1402684968987202e-05	-341118619.98385084
1.1465220797571276e-05	-341118619.9838489
1.152809959185747e-05	-341118619.983847
1.1591323232775138e-05	-341118619.9838451
1.1654893611569162e-05	-341118619.98384315
1.1718812629856612e-05	-341118619.9838411
1.1783082199683587e-05	-341118619.98383915
1.1847704243582509e-05	-341118619.98383725
1.1912680694629486e-05	-341118619.9838352
1.1978013496502206e-05	-341118619.98383325
1.2043704603538158e-05	-341118619.98383117
1.2109755980792949e-05	-341118619.9838292
1.2176169604099172e-05	-341118619.9838271
1.2242947460125471e-05	-341118619.983825
1.231009154643607e-05	-341118619.9838229
1.2377603871550368e-05	-341118619.98382086
1.2445486455003133e-05	-341118619.9838188
1.251374132740485e-05	-341118619.9838167
1.2582370530502579e-05	-341118619.9838146
1.2651376117240868e-05	-341118619.9838125
1.2720760151823269e-05	-341118619.98381037
1.2790524709774036e-05	-341118619.9838082
1.2860671878000315e-05	-341118619.983806
1.2931203754854411e-05	-341118619.9838039
1.3002122450196667e-05	-341118619.9838017
1.3073430085458519e-05	-341118619.9837995
1.3145128793706067e-05	-341118619.9837974
1.3217220719703721e-05	-341118619.98379505
1.3289708019978464e-05	-341118619.98379284
1.3362592862884308e-05	-341118619.9837907
1.3435877428667269e-05	-341118619.9837884
1.3509563909530415e-05	-341118619.98378605
1.3583654509699565e-05	-341118619.9837839
1.3658151445489154e-05	-341118619.9837816
1.3733056945368653e-05	-341118619.98377925
1.3808373250029063e-05	-341118619.9837769
1.3884102612450019e-05	-341118619.98377466
1.3960247297967276e-05	-341118619.98377234
1.4036809584340299e-05	-341118619.9837699
1.4113791761820519e-05	-341118619.9837676
1.4191196133219775e-05	-341118619.9837653
1.4269025013979325e-05	-341118619.9837628
1.4347280732238928e-05	-341118619.98376036
1.4425965628906611e-05	-341118619.9837579
1.4505082057728624e-05	-341118619.9837556
1.4584632385359979e-05	-341118619.9837531
1.4664618991435059e-05	-341118619.9837507
1.4745044268638926e-05	-341118619.9837482
1.4825910622778827e-05	-341118619.9837457
1.4907220472856292e-05	-341118619.9837432
1.4988976251139303e-05	-341118619.9837407
1.5071180403235182e-05	-341118619.98373824
1.5153835388163678e-05	-341118619.9837357
1.5236943678430655e-05	-341118619.9837331
1.5320507760101867e-05	-341118619.98373055
1.5404530132877447e-05	-341118619.98372793
1.5489013310166612e-05	-341118619.98372537
1.5573959819163e-05	-341118619.9837227
1.5659372200920045e-05	-341118619.9837201
1.5745253010427136e-05	-341118619.98371744
1.5831604816685976e-05	-341118619.98371476
1.5918430202787564e-05	-341118619.98371214
1.600573176598926e-05	-341118619.9837095
1.609351211779259e-05	-341118619.9837068
1.6181773884021444e-05	-341118619.98370403
1.6270519704900444e-05	-341118619.9837013
1.6359752235134053e-05	-341118619.98369855
1.644947414398591e-05	-341118619.98369586
1.6539688115358814e-05	-341118619.98369306
1.663039684787482e-05	-341118619.98369026
1.672160305495608e-05	-341118619.98368746
1.681330946490596e-05	-341118619.98368454
1.6905518820990782e-05	-341118619.9836818
1.6998233881521672e-05	-341118619.98367894
1.7091457419937227e-05	-341118619.9836761
1.7185192224886395e-05	-341118619.9836732
1.7279441100312033e-05	-341118619.9836704
1.737420686553458e-05	-341118619.98366743
1.7469492355336536e-05	-341118619.9836645
1.7565300420047172e-05	-341118619.98366153
1.7661633925627953e-05	-341118619.9836586
1.7758495753758058e-05	-341118619.9836557
1.78558888019207e-05	-341118619.98365265
1.795381598348976e-05	-341118619.9836496
1.8052280227817055e-05	-341118619.98364663
1.8151284480319767e-05	-341118619.98364353
1.8250831702568672e-05	-341118619.9836405
1.8350924872376695e-05	-341118619.9836374
1.8451566983888096e-05	-341118619.98363435
1.8552761047667836e-05	-341118619.9836312
1.8654510090791747e-05	-341118619.9836281
1.8756817156937173e-05	-341118619.98362505
1.885968530647382e-05	-341118619.9836218
1.8963117616555433e-05	-341118619.9836186
1.9067117181211778e-05	-341118619.98361546
1.9171687111441346e-05	-341118619.98361224
1.9276830535304182e-05	-341118619.983609
1.9382550598015615e-05	-341118619.98360574
1.948885046204026e-05	-341118619.9836025
1.959573330718678e-05	-341118619.9835991
1.9703202330702767e-05	-341118619.9835959
1.981126074737054e-05	-341118619.98359257
1.991991178960323e-05	-341118619.98358923
2.0029158707541644e-05	-341118619.9835859
2.0139004769151228e-05	-341118619.98358244
2.0249453260320006e-05	-341118619.9835791
2.0360507484956766e-05	-341118619.9835757
2.0472170765090087e-05	-341118619.98357224
2.058444644096744e-05	-341118619.9835688
2.0697337871155287e-05	-341118619.9835653
2.0810848432639447e-05	-341118619.9835618
2.092498152092631e-05	-341118619.98355836
2.103974055014413e-05	-341118619.98355484
2.115512895314533e-05	-341118619.98355126
2.1271150181609113e-05	-341118619.9835478
2.1387807706144878e-05	-341118619.9835442
2.1505105016395782e-05	-341118619.9835405
2.1623045621143263e-05	-341118619.98353696
2.1741633048412116e-05	-341118619.98353326
2.186087084557579e-05	-341118619.9835296
2.198076257946265e-05	-341118619.9835259
2.2101311836462655e-05	-341118619.9835223
2.2222522222634577e-05	-341118619.9835185
2.234439736381406e-05	-341118619.9835148
2.2466940905721806e-05	-341118619.983511
2.2590156514072775e-05	-341118619.98350716
2.2714047874685973e-05	-341118619.9835034
2.2838618693594424e-05	-341118619.9834996
2.296387269715623e-05	-341118619.9834957
2.3089813632165933e-05	-341118619.9834918
2.3216445265966794e-05	-341118619.98348796
2.3343771386563197e-05	-341118619.983484
2.3471795802734155e-05	-341118619.98348016
2.3600522344147148e-05	-341118619.98347616
2.372995486147287e-05	-341118619.98347217
2.386009722650014e-05	-341118619.9834683
2.39909533322519e-05	-341118619.98346424
2.412252709310157e-05	-341118619.9834602
2.425482244489036e-05	-341118619.9834561
2.4387843345044683e-05	-341118619.983452
2.4521593772694744e-05	-341118619.98344785
2.465607772879348e-05	-341118619.9834438
2.4791299236236423e-05	-341118619.9834396
2.492726233998176e-05	-341118619.98343545
2.506397110717146e-05	-341118619.9834312
2.5201429627253114e-05	-341118619.98342705
2.5339642012101934e-05	-341118619.9834227
2.547861239614398e-05	-341118619.98341846
2.5618344936479774e-05	-341118619.9834142
2.5758843813008595e-05	-341118619.9834098
2.5900113228553743e-05	-341118619.98340553
2.6042157408987926e-05	-341118619.9834012
2.618498060335984e-05	-341118619.98339677
2.6328587084021428e-05	-341118619.98339236
2.6472981146755363e-05	-341118619.9833879
2.6618167110903767e-05	-341118619.9833835
2.6764149319497308e-05	-341118619.98337895
2.6910932139385327e-05	-341118619.98337454
2.7058519961366146e-05	-341118619.98337
2.720691720031864e-05	-341118619.98336536
2.7356128295334158e-05	-341118619.9833609
2.750615770984958e-05	-341118619.9833561
2.765700993178047e-05	-341118619.9833516
2.7808689473655556e-05	-341118619.98334694
2.7961200872751598e-05	-341118619.98334223
2.8114548691229352e-05	-341118619.9833375
2.8268737516269696e-05	-341118619.9833329
2.8423771960211075e-05	-341118619.983328
2.8579656660687352e-05	-341118619.9833232
2.873639628076678e-05	-341118619.9833184
2.8893995509091133e-05	-341118619.98331356
2.9052459060016196e-05	-341118619.9833087
2.921179167375267e-05	-341118619.9833038
2.937199811650821e-05	-341118619.9832989
2.9533083180629634e-05	-341118619.98329395
2.9695051684746533e-05	-341118619.98328894
2.985790847391527e-05	-341118619.983284
3.002165841976417e-05	-341118619.98327893
3.0186306420638895e-05	-341118619.9832739
3.035185740174913e-05	-341118619.9832688
3.05183163153161e-05	-341118619.98326373
3.0685688140720366e-05	-341118619.9832586
3.085397788465099e-05	-341118619.98325336
3.102319058125521e-05	-341118619.98324823
3.1193331292289227e-05	-341118619.98324287
3.1364405107269324e-05	-341118619.9832377
3.1536417143624294e-05	-341118619.9832324
3.1709372546848416e-05	-341118619.9832271
3.188327649065565e-05	-341118619.9832217
3.205813417713397e-05	-341118619.98321635
3.223395083690131e-05	-341118619.98321104
3.241073172926181e-05	-341118619.9832056
3.258848214236346e-05	-341118619.98320013
3.276720739335591e-05	-341118619.98319465
3.294691282854972e-05	-341118619.98318905
3.3127603823576205e-05	-341118619.9831835
3.330928578354851e-05	-341118619.9831779
3.3491964143222855e-05	-341118619.9831723
3.367564436716136e-05	-341118619.9831667
3.386033194989567e-05	-341118619.98316103
3.404603241609092e-05	-341118619.98315537
3.42327513207113e-05	-341118619.98314965
3.44204942491861e-05	-341118619.98314387
3.460926681757677e-05	-341118619.983138
3.479907467274518e-05	-341118619.9831322
3.49899234925221e-05	-341118619.9831263
3.518181898587727e-05	-341118619.9831204
3.5374766893090404e-05	-341118619.98311454
3.556877298592245e-05	-341118619.9831085
3.576384306778854e-05	-341118619.98310256
3.5959982973931505e-05	-341118619.9830966
3.615719857159639e-05	-341118619.98309046
3.6355495760206216e-05	-341118619.9830843
3.655488047153805e-05	-341118619.98307836
3.675535866990062e-05	-341118619.9830721
3.695693635231302e-05	-341118619.9830659
3.715961954868357e-05	-341118619.9830596
3.7363414321990576e-05	-341118619.98305345
3.756832676846347e-05	-341118619.9830472
3.7774363017765534e-05	-341118619.9830408
3.798152923317676e-05	-341118619.98303443
3.818983161177856e-05	-341118619.98302805
3.839927638463894e-05	-341118619.98302156
3.8609869816999246e-05	-341118619.9830152
3.88216182084611e-05	-341118619.9830086
3.903452789317507e-05	-341118619.9830021
3.92486052400304e-05	-341118619.9829955
3.946385665284502e-05	-341118619.98298895
3.9680288570557464e-05	-341118619.9829822
3.9897907467419386e-05	-341118619.9829756
4.011671985318913e-05	-341118619.9829688
4.033673227332681e-05	-341118619.98296213
4.05579513091896e-05	-341118619.9829554
4.0780383578228864e-05	-341118619.98294854
4.100403573418836e-05	-341118619.9829415
4.1228914467302764e-05	-341118619.9829346
4.1455026504498136e-05	-341118619.98292774
4.1682378609593064e-05	-341118619.98292077
4.191097758350092e-05	-341118619.9829137
4.2140830264433634e-05	-341118619.98290664
4.2371943528105714e-05	-341118619.98289955
4.260432428794022e-05	-341118619.98289245
4.283797949527579e-05	-341118619.98288524
4.3072916139574105e-05	-341118619.982878
4.330914124862927e-05	-341118619.9828708
4.3546661888777876e-05	-341118619.9828635
4.378548516511076e-05	-341118619.98285615
4.402561822168499e-05	-341118619.98284876
4.426706824173792e-05	-341118619.9828414
4.45098424479019e-05	-341118619.98283386
4.475394810242069e-05	-341118619.9828265
4.499939250736615e-05	-341118619.98281884
4.524618300485703e-05	-341118619.98281133
4.549432697727843e-05	-341118619.98280364
4.5743831847503015e-05	-341118619.982796
4.599470507911245e-05	-341118619.9827883
4.62469541766211e-05	-341118619.9827806
4.650058668570028e-05	-341118619.9827727
4.675561019340437e-05	-341118619.982765
4.701203232839722e-05	-341118619.98275703
4.72698607611806e-05	-341118619.9827491
4.752910320432395e-05	-341118619.98274124
4.7789767412694555e-05	-341118619.9827331
4.8051861183689835e-05	-341118619.982725
4.8315392357470556e-05	-341118619.982717
4.858036881719523e-05	-341118619.98270893
4.884679848925632e-05	-341118619.98270077
4.9114689343516796e-05	-341118619.98269254
4.9384049393548754e-05	-341118619.9826842
4.9654886696873534e-05	-341118619.98267585
4.992720935520206e-05	-341118619.98266757
5.0201025514677654e-05	-341118619.9826591
5.047634336611947e-05	-341118619.98265064
5.0753171145267954e-05	-341118619.98264223
5.103151713303057e-05	-341118619.9826336
5.131138965572993e-05	-341118619.98262507
5.1592797085352634e-05	-341118619.98261636
5.187574783980018e-05	-341118619.9826076
5.216025038314007e-05	-341118619.9825989
5.244631322585949e-05	-341118619.9825902
5.273394492511963e-05	-341118619.9825812
5.30231540850121e-05	-341118619.9825724
5.3313949356815684e-05	-341118619.9825635
5.360633943925554e-05	-341118619.98255444
5.3900333078763195e-05	-341118619.98254555
5.419593906973862e-05	-341118619.9825364
5.449316625481266e-05	-341118619.9825273
5.479202352511186e-05	-341118619.9825181
5.509251982052475e-05	-341118619.9825089
5.539466412996866e-05	-341118619.9824996
5.5698465491658986e-05	-341118619.9824902
5.600393299337949e-05	-341118619.9824809
5.6311075772753994e-05	-341118619.98247147
5.661990301752024e-05	-341118619.9824619
5.693042396580397e-05	-341118619.9824524
5.724264790639567e-05	-341118619.98244274
5.755658417902873e-05	-341118619.9824331
5.7872242174658186e-05	-341118619.98242354
5.8189631335742055e-05	-341118619.9824137
5.850876115652358e-05	-341118619.9824039
5.882964118331572e-05	-341118619.98239404
5.915228101478598e-05	-341118619.9823841
5.947669030224402e-05	-341118619.98237413
5.980287874993014e-05	-341118619.9823641
6.013085611530605e-05	-341118619.9823541
6.046063220934598e-05	-341118619.982344
6.079221689683071e-05	-341118619.9823338
6.112562009664238e-05	-341118619.9823235
6.146085178206167e-05	-341118619.9823132
6.179792198106547e-05	-341118619.98230284
6.213684077662729e-05	-341118619.98229253
6.247761830701861e-05	-341118619.982282
6.28202647661127e-05	-341118619.9822715
6.316479040368881e-05	-341118619.9822608
6.35112055257391e-05	-341118619.9822503
6.385952049477734e-05	-341118619.9822396
6.420974573014813e-05	-341118619.98222876
6.45618917083391e-05	-341118619.982218
6.491596896329417e-05	-341118619.9822072
6.527198808672846e-05	-341118619.98219615
6.562995972844575e-05	-341118619.9821852
6.598989459665622e-05	-341118619.9821741
6.635180345829713e-05	-341118619.982163
6.671569713935537e-05	-341118619.98215175
6.708158652519047e-05	-341118619.9821406
6.744948256086071e-05	-341118619.9821293
6.781939625145034e-05	-341118619.982118
6.819133866239926e-05	-341118619.98210645
6.856532091983325e-05	-341118619.98209506
6.894135421089728e-05	-341118619.9820834
6.931944978409e-05	-341118619.9820718
6.96996189496006e-05	-341118619.9820602
7.008187307964648e-05	-341118619.98204833
7.046622360881392e-05	-341118619.9820367
7.085268203439976e-05	-341118619.9820247
7.124125991675608e-05	-341118619.98201287
7.163196887963497e-05	-341118619.98200077
7.202482061053695e-05	-341118619.9819888
7.241982686106021e-05	-341118619.9819766
7.281699944725277e-05	-341118619.9819644
7.321635024996503e-05	-341118619.98195213
7.361789121520563e-05	-341118619.9819398
7.402163435449926e-05	-341118619.98192745
7.442759174524503e-05	-341118619.981915
7.483577553107837e-05	-341118619.9819024
7.524619792223415e-05	-341118619.98188984
7.565887119591176e-05	-341118619.9818771
7.6073807696643e-05	-341118619.9818644
7.649101983666037e-05	-341118619.9818515
7.691052009626892e-05	-341118619.98183864
7.733232102421997e-05	-341118619.9818257
7.775643523808558e-05	-341118619.9818127
7.818287542463662e-05	-341118619.98179954
7.861165434022194e-05	-341118619.98178643
7.90427848111506e-05	-341118619.98177314
7.947627973407463e-05	-341118619.9817599
7.991215207637538e-05	-341118619.9817464
8.035041487655118e-05	-341118619.98173296
8.079108124460797e-05	-341118619.9817195
8.123416436245049e-05	-341118619.98170584
8.167967748427727e-05	-341118619.98169214
8.212763393697676e-05	-341118619.98167837
8.257804712052669e-05	-341118619.9816646
8.303093050839386e-05	-341118619.98165065
8.348629764793785e-05	-341118619.98163664
8.394416216081602e-05	-341118619.98162264
8.440453774339154e-05	-341118619.98160845
8.486743816714215e-05	-341118619.98159426
8.533287727907258e-05	-341118619.98157996
8.580086900212937e-05	-341118619.98156565
8.627142733561618e-05	-341118619.9815511
8.674456635561339e-05	-341118619.98153657
8.722030021539891e-05	-341118619.98152196
8.769864314587137e-05	-341118619.9815073
8.817960945597661e-05	-341118619.98149246
8.866321353313454e-05	-341118619.9814777
8.914946984367011e-05	-341118619.9814628
8.963839293324662e-05	-341118619.9814477
9.01299974272997e-05	-341118619.9814326
9.06242980314755e-05	-341118619.9814175
9.11213095320705e-05	-341118619.9814021
9.162104679647358e-05	-341118619.98138684
9.212352477361151e-05	-341118619.98137134
9.2628758494395e-05	-341118619.98135597
9.313676307216889e-05	-341118619.9813402
9.364755370316481e-05	-341118619.98132455
9.416114566695465e-05	-341118619.98130876
9.467755432690834e-05	-341118619.98129296
9.519679513065307e-05	-341118619.9812769
9.57188836105361e-05	-341118619.98126096
9.624383538408837e-05	-341118619.9812448
9.677166615449224e-05	-341118619.98122865
9.730239171105104e-05	-341118619.98121226
9.783602792966204e-05	-341118619.9811959
9.837259077329022e-05	-341118619.98117936
9.891209629244658e-05	-341118619.9811629
9.945456062566782e-05	-341118619.9811462
0.0001	-341118619.98112947
0.00010054843073148261	-341118619.98111254
0.00010109986922563747	-341118619.9810957
0.0001016543319779595	-341118619.98107857
0.00010221183557440998	-341118619.98106146
0.00010277239669191254	-341118619.9810443
0.0001033360320988521	-341118619.9810269
0.00010390275865557683	-341118619.9810096
0.00010447259331490224	-341118619.980992
0.00010504555312261801	-341118619.9809745
0.00010562165521799824	-341118619.98095673
0.00010620091683431424	-341118619.9809389
0.00010678335529934992	-341118619.98092115
0.00010736898803591982	-341118619.9809031
0.00010795783256239058	-341118619.980885
0.00010854990649320517	-341118619.9808668
0.00010914522753940955	-341118619.9808485
0.0001097438135091823	-341118619.9808301
0.00011034568230836751	-341118619.98081166
0.00011095085194101066	-341118619.9807931
0.00011155934050989694	-341118619.9807744
0.00011217116621709244	-341118619.9807556
0.0001127863473644893	-341118619.9807367
0.00011340490235435289	-341118619.9807177
0.00011402684968987202	-341118619.9806985
0.00011465220797571265	-341118619.98067933
0.0001152809959185747	-341118619.9806601
0.00011591323232775138	-341118619.9806406
0.00011654893611569162	-341118619.98062116
0.00011718812629856598	-341118619.9806015
0.00011783082199683586	-341118619.98058176
0.00011847704243582509	-341118619.9805619
0.00011912680694629486	-341118619.9805419
0.00011978013496502219	-341118619.98052186
0.00012043704603538159	-341118619.9805017
0.00012109755980792949	-341118619.9804813
0.00012176169604099172	-341118619.980461
0.00012242947460125485	-341118619.9804405
0.0001231009154643607	-341118619.9804199
0.00012377603871550368	-341118619.98039913
0.00012445486455003134	-341118619.98037827
0.00012513741327404863	-341118619.9803572
0.0001258237053050258	-341118619.98033625
0.00012651376117240869	-341118619.98031497
0.0001272076015182327	-341118619.98029375
0.00012790524709774048	-341118619.9802723
0.00012860671878000315	-341118619.98025066
0.0001293120375485441	-341118619.9802291
0.00013002122450196665	-341118619.9802073
0.0001307343008545852	-341118619.9801853
0.00013145128793706068	-341118619.98016334
0.0001321722071970372	-341118619.9801413
0.00013289708019978452	-341118619.980119
0.00013362592862884307	-341118619.9800966
0.00013435877428667268	-341118619.98007417
0.00013509563909530416	-341118619.9800513
0.0001358365450969955	-341118619.9800286
