# Frequency (Hz)	Imaginary Part (Ohm/m)
1e-05	7294517413.966806
1.0054843073148261e-05	7294517412.00969
1.0109986922563737e-05	7294517410.0418415
1.016543319779595e-05	7294517408.063199
1.0221183557440998e-05	7294517406.073706
1.0277239669191254e-05	7294517404.073302
1.03336032098852e-05	7294517402.061927
1.0390275865557684e-05	7294517400.039521
1.0447259331490224e-05	7294517398.006024
1.05045553122618e-05	7294517395.961374
1.0562165521799813e-05	7294517393.080686
1.0620091683431424e-05	7294517390.129905
1.0678335529934991e-05	7294517387.162942
1.0736898803591982e-05	7294517384.179707
1.0795783256239048e-05	7294517381.180112
1.0854990649320517e-05	7294517378.164065
1.0914522753940955e-05	7294517375.131478
1.097438135091823e-05	7294517372.082259
1.103456823083674e-05	7294517369.016317
1.1095085194101066e-05	7294517366.0643
1.1155934050989693e-05	7294517363.114513
1.1217116621709254e-05	7294517360.14855
1.127863473644893e-05	7294517357.166319
1.134049023543529e-05	7294517354.167734
1.1402684968987202e-05	7294517351.152702
1.1465220797571276e-05	7294517348.121137
1.152809959185747e-05	7294517345.072946
1.1591323232775138e-05	7294517342.008035
1.1654893611569162e-05	7294517339.845172
1.1718812629856612e-05	7294517337.879311
1.1783082199683587e-05	7294517335.902667
1.1847704243582509e-05	7294517333.915183
1.1912680694629486e-05	7294517331.9168
1.1978013496502206e-05	7294517329.907457
1.2043704603538158e-05	7294517327.887094
1.2109755980792949e-05	7294517325.85565
1.2176169604099172e-05	7294517323.8130665
1.2242947460125471e-05	7294517321.060787
1.231009154643607e-05	7294517318.064411
1.2377603871550368e-05	7294517315.051602
1.2445486455003133e-05	7294517312.02227
1.251374132740485e-05	7294517308.976322
1.2582370530502579e-05	7294517305.913672
1.2651376117240868e-05	7294517302.834224
1.2720760151823269e-05	7294517299.737887
1.2790524709774036e-05	7294517296.624569
1.2860671878000315e-05	7294517293.494178
1.2931203754854411e-05	7294517290.346617
1.3002122450196667e-05	7294517287.181794
1.3073430085458519e-05	7294517283.999615
1.3145128793706067e-05	7294517280.799985
1.3217220719703721e-05	7294517277.582806
1.3289708019978464e-05	7294517274.347982
1.3362592862884308e-05	7294517271.095419
1.3435877428667269e-05	7294517267.825017
1.3509563909530415e-05	7294517264.536679
1.3583654509699565e-05	7294517261.230307
1.3658151445489154e-05	7294517257.905802
1.3733056945368653e-05	7294517254.563064
1.3808373250029063e-05	7294517251.201994
1.3884102612450019e-05	7294517247.822491
1.3960247297967276e-05	7294517244.424452
1.4036809584340299e-05	7294517241.007779
1.4113791761820519e-05	7294517237.572368
1.4191196133219775e-05	7294517234.118115
1.4269025013979325e-05	7294517230.644918
1.4347280732238928e-05	7294517227.152673
1.4425965628906611e-05	7294517223.641276
1.4505082057728624e-05	7294517220.1106205
1.4584632385359979e-05	7294517216.560603
1.4664618991435059e-05	7294517212.991115
1.4745044268638926e-05	7294517209.402051
1.4825910622778827e-05	7294517205.793304
1.4907220472856292e-05	7294517202.126498
1.4988976251139303e-05	7294517198.435582
1.5071180403235182e-05	7294517194.724424
1.5153835388163678e-05	7294517190.992914
1.5236943678430655e-05	7294517187.240939
1.5320507760101867e-05	7294517183.468387
1.5404530132877447e-05	7294517179.675144
1.5489013310166612e-05	7294517175.861098
1.5573959819163e-05	7294517172.026135
1.5659372200920045e-05	7294517168.170141
1.5745253010427136e-05	7294517164.292997
1.5831604816685976e-05	7294517160.394592
1.5918430202787564e-05	7294517156.474806
1.600573176598926e-05	7294517152.533523
1.609351211779259e-05	7294517148.570624
1.6181773884021444e-05	7294517144.585991
1.6270519704900444e-05	7294517140.579507
1.6359752235134053e-05	7294517136.551048
1.644947414398591e-05	7294517132.500498
1.6539688115358814e-05	7294517128.4277315
1.663039684787482e-05	7294517124.33263
1.672160305495608e-05	7294517120.215069
1.681330946490596e-05	7294517116.074926
1.6905518820990782e-05	7294517111.912077
1.6998233881521672e-05	7294517107.7263975
1.7091457419937227e-05	7294517103.517763
1.7185192224886395e-05	7294517099.286046
1.7279441100312033e-05	7294517095.031123
1.737420686553458e-05	7294517090.752863
1.7469492355336536e-05	7294517086.451141
1.7565300420047172e-05	7294517082.125826
1.7661633925627953e-05	7294517077.776791
1.7758495753758058e-05	7294517073.403903
1.78558888019207e-05	7294517069.007033
1.795381598348976e-05	7294517064.58605
1.8052280227817055e-05	7294517060.156289
1.8151284480319767e-05	7294517055.9558325
1.8250831702568672e-05	7294517051.73234
1.8350924872376695e-05	7294517047.485684
1.8451566983888096e-05	7294517043.215738
1.8552761047667836e-05	7294517038.922374
1.8654510090791747e-05	7294517034.605464
1.8756817156937173e-05	7294517030.264879
1.885968530647382e-05	7294517025.900489
1.8963117616555433e-05	7294517021.512163
1.9067117181211778e-05	7294517017.099771
1.9171687111441346e-05	7294517012.663178
1.9276830535304182e-05	7294517008.202255
1.9382550598015615e-05	7294517003.716868
1.948885046204026e-05	7294516999.206881
1.959573330718678e-05	7294516994.672158
1.9703202330702767e-05	7294516990.112568
1.981126074737054e-05	7294516985.527969
1.991991178960323e-05	7294516980.918228
2.0029158707541644e-05	7294516976.283205
2.0139004769151228e-05	7294516971.622765
2.0249453260320006e-05	7294516966.936763
2.0360507484956766e-05	7294516962.225061
2.0472170765090087e-05	7294516957.48752
2.058444644096744e-05	7294516952.723996
2.0697337871155287e-05	7294516947.934348
2.0810848432639447e-05	7294516943.118432
2.092498152092631e-05	7294516938.276104
2.103974055014413e-05	7294516933.40722
2.115512895314533e-05	7294516928.511633
2.1271150181609113e-05	7294516923.589196
2.1387807706144878e-05	7294516918.639764
2.1505105016395782e-05	7294516913.663187
2.1623045621143263e-05	7294516908.659318
2.1741633048412116e-05	7294516903.628006
2.186087084557579e-05	7294516898.569099
2.198076257946265e-05	7294516893.48245
2.2101311836462655e-05	7294516888.367903
2.2222522222634577e-05	7294516883.225306
2.234439736381406e-05	7294516878.054505
2.2466940905721806e-05	7294516872.855346
2.2590156514072775e-05	7294516867.627674
2.2714047874685973e-05	7294516862.371332
2.2838618693594424e-05	7294516857.086163
2.296387269715623e-05	7294516851.772006
2.3089813632165933e-05	7294516846.428706
2.3216445265966794e-05	7294516841.056102
2.3343771386563197e-05	7294516835.654033
2.3471795802734155e-05	7294516830.222338
2.3600522344147148e-05	7294516824.760852
2.372995486147287e-05	7294516819.269415
2.386009722650014e-05	7294516813.747861
2.39909533322519e-05	7294516808.196025
2.412252709310157e-05	7294516802.613741
2.425482244489036e-05	7294516796.987828
2.4387843345044683e-05	7294516791.193183
2.4521593772694744e-05	7294516785.366757
2.465607772879348e-05	7294516779.508377
2.4791299236236423e-05	7294516773.617868
2.492726233998176e-05	7294516767.695054
2.506397110717146e-05	7294516761.739757
2.5201429627253114e-05	7294516755.7518
2.5339642012101934e-05	7294516749.731003
2.547861239614398e-05	7294516743.677184
2.5618344936479774e-05	7294516737.590166
2.5758843813008595e-05	7294516731.469765
2.5900113228553743e-05	7294516725.315798
2.6042157408987926e-05	7294516719.12808
2.618498060335984e-05	7294516712.906427
2.6328587084021428e-05	7294516706.650652
2.6472981146755363e-05	7294516700.360569
2.6618167110903767e-05	7294516694.035989
2.6764149319497308e-05	7294516687.676724
2.6910932139385327e-05	7294516681.282582
2.7058519961366146e-05	7294516674.853373
2.720691720031864e-05	7294516668.388904
2.7356128295334158e-05	7294516661.888982
2.750615770984958e-05	7294516655.353412
2.765700993178047e-05	7294516648.781998
2.7808689473655556e-05	7294516642.174545
2.7961200872751598e-05	7294516635.530856
2.8114548691229352e-05	7294516628.85073
2.8268737516269696e-05	7294516622.133968
2.8423771960211075e-05	7294516615.380369
2.8579656660687352e-05	7294516608.589732
2.873639628076678e-05	7294516601.761852
2.8893995509091133e-05	7294516594.896527
2.9052459060016196e-05	7294516587.993551
2.921179167375267e-05	7294516581.052715
2.937199811650821e-05	7294516574.073814
2.9533083180629634e-05	7294516567.05664
2.9695051684746533e-05	7294516560.000979
2.985790847391527e-05	7294516552.906625
3.002165841976417e-05	7294516545.773362
3.0186306420638895e-05	7294516538.600979
3.035185740174913e-05	7294516531.38926
3.05183163153161e-05	7294516524.137989
3.0685688140720366e-05	7294516516.846951
3.085397788465099e-05	7294516509.515925
3.102319058125521e-05	7294516502.144694
3.1193331292289227e-05	7294516494.733038
3.1364405107269324e-05	7294516487.280735
3.1536417143624294e-05	7294516479.7875595
3.1709372546848416e-05	7294516472.253289
3.188327649065565e-05	7294516464.677699
3.205813417713397e-05	7294516457.060562
3.223395083690131e-05	7294516449.401649
3.241073172926181e-05	7294516441.700734
3.258848214236346e-05	7294516433.941476
3.276720739335591e-05	7294516426.015701
3.294691282854972e-05	7294516418.04646
3.3127603823576205e-05	7294516410.033511
3.330928578354851e-05	7294516401.976619
3.3491964143222855e-05	7294516393.875539
3.367564436716136e-05	7294516385.730031
3.386033194989567e-05	7294516377.539849
3.404603241609092e-05	7294516369.30475
3.42327513207113e-05	7294516361.024489
3.44204942491861e-05	7294516352.698814
3.460926681757677e-05	7294516344.32748
3.479907467274518e-05	7294516335.910234
3.49899234925221e-05	7294516327.446826
3.518181898587727e-05	7294516318.937003
3.5374766893090404e-05	7294516310.380508
3.556877298592245e-05	7294516301.777087
3.576384306778854e-05	7294516293.126482
3.5959982973931505e-05	7294516284.428434
3.615719857159639e-05	7294516275.682686
3.6355495760206216e-05	7294516266.888971
3.655488047153805e-05	7294516258.047029
3.675535866990062e-05	7294516249.156595
3.695693635231302e-05	7294516240.217403
3.715961954868357e-05	7294516231.229186
3.7363414321990576e-05	7294516222.191675
3.756832676846347e-05	7294516213.1046
3.7774363017765534e-05	7294516203.967689
3.798152923317676e-05	7294516194.780665
3.818983161177856e-05	7294516185.54326
3.839927638463894e-05	7294516176.255194
3.8609869816999246e-05	7294516166.916187
3.88216182084611e-05	7294516157.525965
3.903452789317507e-05	7294516148.084243
3.92486052400304e-05	7294516138.590739
3.946385665284502e-05	7294516129.04517
3.9680288570557464e-05	7294516119.665461
3.9897907467419386e-05	7294516110.308797
4.011671985318913e-05	7294516100.900819
4.033673227332681e-05	7294516091.441243
4.05579513091896e-05	7294516081.929789
4.0780383578228864e-05	7294516072.366171
4.100403573418836e-05	7294516062.750103
4.1228914467302764e-05	7294516053.081298
4.1455026504498136e-05	7294516043.359467
4.1682378609593064e-05	7294516033.584316
4.191097758350092e-05	7294516023.755557
4.2140830264433634e-05	7294516013.872894
4.2371943528105714e-05	7294516003.93603
4.260432428794022e-05	7294515993.94467
4.283797949527579e-05	7294515983.898515
4.3072916139574105e-05	7294515973.797264
4.330914124862927e-05	7294515963.640614
4.3546661888777876e-05	7294515953.428261
4.378548516511076e-05	7294515943.159902
4.402561822168499e-05	7294515932.835226
4.426706824173792e-05	7294515922.453928
4.45098424479019e-05	7294515912.015696
4.475394810242069e-05	7294515901.520217
4.499939250736615e-05	7294515890.967176
4.524618300485703e-05	7294515880.356261
4.549432697727843e-05	7294515869.687153
4.5743831847503015e-05	7294515858.959531
4.599470507911245e-05	7294515848.173075
4.62469541766211e-05	7294515837.327463
4.650058668570028e-05	7294515826.422371
4.675561019340437e-05	7294515815.457472
4.701203232839722e-05	7294515804.432438
4.72698607611806e-05	7294515793.346939
4.752910320432395e-05	7294515782.200644
4.7789767412694555e-05	7294515770.993219
4.8051861183689835e-05	7294515759.682046
4.8315392357470556e-05	7294515748.238713
4.858036881719523e-05	7294515736.73262
4.884679848925632e-05	7294515725.163426
4.9114689343516796e-05	7294515713.530783
4.9384049393548754e-05	7294515701.83434
4.9654886696873534e-05	7294515690.073753
4.992720935520206e-05	7294515678.248667
5.0201025514677654e-05	7294515666.358728
5.047634336611947e-05	7294515654.403581
5.0753171145267954e-05	7294515642.382868
5.103151713303057e-05	7294515630.29623
5.131138965572993e-05	7294515618.143306
5.1592797085352634e-05	7294515605.92373
5.187574783980018e-05	7294515593.637139
5.216025038314007e-05	7294515581.283164
5.244631322585949e-05	7294515568.861438
5.273394492511963e-05	7294515556.371586
5.30231540850121e-05	7294515543.813236
5.3313949356815684e-05	7294515531.186011
5.360633943925554e-05	7294515518.489535
5.3900333078763195e-05	7294515505.723429
5.419593906973862e-05	7294515492.887308
5.449316625481266e-05	7294515479.980791
5.479202352511186e-05	7294515467.0034895
5.509251982052475e-05	7294515453.955017
5.539466412996866e-05	7294515440.834984
5.5698465491658986e-05	7294515427.642995
5.600393299337949e-05	7294515414.378658
5.6311075772753994e-05	7294515401.0415745
5.661990301752024e-05	7294515387.631346
5.693042396580397e-05	7294515374.1475725
5.724264790639567e-05	7294515360.58985
5.755658417902873e-05	7294515346.957772
5.7872242174658186e-05	7294515333.250933
5.8189631335742055e-05	7294515319.46892
5.850876115652358e-05	7294515305.611323
5.882964118331572e-05	7294515291.677727
5.915228101478598e-05	7294515277.667714
5.947669030224402e-05	7294515263.580866
5.980287874993014e-05	7294515249.416762
6.013085611530605e-05	7294515235.174977
6.046063220934598e-05	7294515220.855086
6.079221689683071e-05	7294515206.45666
6.112562009664238e-05	7294515191.979268
6.146085178206167e-05	7294515177.422479
6.179792198106547e-05	7294515162.785856
6.213684077662729e-05	7294515148.06896
6.247761830701861e-05	7294515133.271352
6.28202647661127e-05	7294515118.392591
6.316479040368881e-05	7294515103.432229
6.35112055257391e-05	7294515088.389821
6.385952049477734e-05	7294515073.264914
6.420974573014813e-05	7294515058.057058
6.45618917083391e-05	7294515042.765799
6.491596896329417e-05	7294515027.3906765
6.527198808672846e-05	7294515011.9312315
6.562995972844575e-05	7294514996.387004
6.598989459665622e-05	7294514980.757525
6.635180345829713e-05	7294514965.042332
6.671569713935537e-05	7294514949.24095
6.708158652519047e-05	7294514933.352909
6.744948256086071e-05	7294514917.377732
6.781939625145034e-05	7294514901.314943
6.819133866239926e-05	7294514885.164062
6.856532091983325e-05	7294514868.9246025
6.894135421089728e-05	7294514852.596083
6.931944978409e-05	7294514836.178011
6.96996189496006e-05	7294514819.669897
7.008187307964648e-05	7294514803.071248
7.046622360881392e-05	7294514786.381568
7.085268203439976e-05	7294514769.600356
7.124125991675608e-05	7294514752.72711
7.163196887963497e-05	7294514735.761327
7.202482061053695e-05	7294514718.702498
7.241982686106021e-05	7294514701.550113
7.281699944725277e-05	7294514684.303659
7.321635024996503e-05	7294514666.96262
7.361789121520563e-05	7294514649.526478
7.402163435449926e-05	7294514631.99471
7.442759174524503e-05	7294514614.366793
7.483577553107837e-05	7294514596.642199
7.524619792223415e-05	7294514578.820398
7.565887119591176e-05	7294514560.900856
7.6073807696643e-05	7294514542.8830385
7.649101983666037e-05	7294514524.766406
7.691052009626892e-05	7294514506.550416
7.733232102421997e-05	7294514488.234524
7.775643523808558e-05	7294514469.818181
7.818287542463662e-05	7294514451.300838
7.861165434022194e-05	7294514432.68194
7.90427848111506e-05	7294514413.960932
7.947627973407463e-05	7294514395.13725
7.991215207637538e-05	7294514376.210334
8.035041487655118e-05	7294514357.179616
8.079108124460797e-05	7294514338.044529
8.123416436245049e-05	7294514318.8045
8.167967748427727e-05	7294514299.45895
8.212763393697676e-05	7294514280.007304
8.257804712052669e-05	7294514260.448981
8.303093050839386e-05	7294514240.783393
8.348629764793785e-05	7294514221.009953
8.394416216081602e-05	7294514201.128069
8.440453774339154e-05	7294514181.137146
8.486743816714215e-05	7294514161.036588
8.533287727907258e-05	7294514140.825792
8.580086900212937e-05	7294514120.504154
8.627142733561618e-05	7294514100.071065
8.674456635561339e-05	7294514079.525915
8.722030021539891e-05	7294514058.86809
8.769864314587137e-05	7294514038.09697
8.817960945597661e-05	7294514017.211936
8.866321353313454e-05	7294513996.21236
8.914946984367011e-05	7294513975.097617
8.963839293324662e-05	7294513953.867074
9.01299974272997e-05	7294513932.520098
9.06242980314755e-05	7294513911.0560465
9.11213095320705e-05	7294513889.47428
9.162104679647358e-05	7294513867.774153
9.212352477361151e-05	7294513845.955015
9.2628758494395e-05	7294513824.016215
9.313676307216889e-05	7294513801.957095
9.364755370316481e-05	7294513779.776998
9.416114566695465e-05	7294513757.475257
9.467755432690834e-05	7294513735.051206
9.519679513065307e-05	7294513712.504175
9.57188836105361e-05	7294513689.833489
9.624383538408837e-05	7294513667.038471
9.677166615449224e-05	7294513644.118437
9.730239171105104e-05	7294513621.072703
9.783602792966204e-05	7294513597.9005785
9.837259077329022e-05	7294513574.567704
9.891209629244658e-05	7294513551.082579
9.945456062566782e-05	7294513527.468654
0.0001	7294513503.725224
0.00010054843073148261	7294513479.851575
0.00010109986922563747	7294513455.846997
0.0001016543319779595	7294513431.7107725
0.00010221183557440998	7294513407.442176
0.00010277239669191254	7294513383.0404825
0.0001033360320988521	7294513358.504963
0.00010390275865557683	7294513333.834884
0.00010447259331490224	7294513309.029506
0.00010504555312261801	7294513284.088087
0.00010562165521799824	7294513259.009883
0.00010620091683431424	7294513233.794142
0.00010678335529934992	7294513208.440109
0.00010736898803591982	7294513182.947028
0.00010795783256239058	7294513157.314135
0.00010854990649320517	7294513131.540662
0.00010914522753940955	7294513105.62584
0.0001097438135091823	7294513079.568893
0.00011034568230836751	7294513053.369042
0.00011095085194101066	7294513027.025504
0.00011155934050989694	7294513000.53749
0.00011217116621709244	7294512973.904205
0.0001127863473644893	7294512947.124858
0.00011340490235435289	7294512920.198643
0.00011402684968987202	7294512893.124757
0.00011465220797571265	7294512865.902389
0.0001152809959185747	7294512838.530725
0.00011591323232775138	7294512811.008947
0.00011654893611569162	7294512783.336231
0.00011718812629856598	7294512755.511749
0.00011783082199683586	7294512727.534669
0.00011847704243582509	7294512699.404155
0.00011912680694629486	7294512671.119363
0.00011978013496502219	7294512642.679449
0.00012043704603538159	7294512614.083564
0.00012109755980792949	7294512585.330847
0.00012176169604099172	7294512556.420444
0.00012242947460125485	7294512527.351486
0.0001231009154643607	7294512498.123105
0.00012377603871550368	7294512468.7344265
0.00012445486455003134	7294512439.184572
0.00012513741327404863	7294512409.472657
0.0001258237053050258	7294512379.597793
0.00012651376117240869	7294512349.559085
0.0001272076015182327	7294512319.355636
0.00012790524709774048	7294512288.986543
0.00012860671878000315	7294512258.450894
0.0001293120375485441	7294512227.74778
0.00013002122450196665	7294512196.87628
0.0001307343008545852	7294512165.835472
0.00013145128793706068	7294512134.624427
0.0001321722071970372	7294512103.242209
0.00013289708019978452	7294512071.687883
0.00013362592862884307	7294512039.960505
0.00013435877428667268	7294512008.05912
0.00013509563909530416	7294511975.982781
0.0001358365450969955	7294511943.730525
0.00013658151445489154	7294511911.301388
0.00013733056945368653	7294511878.694399
0.00013808373250029062	7294511845.908583
0.00013884102612450033	7294511812.94296
0.00013960247297967274	7294511779.796544
0.000140368095843403	7294511746.468341
0.0001411379176182052	7294511712.957357
0.0001419119613321979	7294511679.2625885
0.00014269025013979324	7294511645.383028
0.0001434728073223893	7294511611.31766
0.0001442596562890661	7294511577.065469
0.0001450508205772864	7294511542.625428
0.0001458463238535998	7294511507.996507
0.00014664618991435058	7294511473.1776705
0.00014745044268638926	7294511438.167876
0.00014825910622778842	7294511402.966077
0.00014907220472856292	7294511367.571222
