# Frequency (Hz)	Imaginary Part (Ohm/m)
1000.0	79581220.85663864
1018.6101701559753	79236274.97069652
1037.566678745186	78884909.58312239
1056.875971184804	78527005.22589856
1076.5446128423157	78162440.20768723
1096.5792912678098	77791090.57245412
1116.9868184678226	77412830.05732197
1137.7741332214914	77027530.0496399
1158.9483034398106	76635059.54325372
1180.5165285688054	76235285.09396255
1202.4861420374123	75828070.77414605
1224.8646137509306	75413278.12654783
1247.6595526308697	74990766.11719829
1270.8787092020582	74605714.54728596
1294.529978227916	74257008.94937098
1318.6214013947485	73901813.88094454
1343.1611700460153	73540008.57185611
1368.1576279674719	73171470.00440216
1393.619274224142	72796072.87149894
1419.5547660501015	72413689.53407621
1445.9729217920194	72024189.97767931
1472.882723907502	71627441.7682622
1500.2933220192183	71223310.00715873
1528.2140360258693	70811657.28521566
1556.654359271062	70392343.6360721
1585.6239617711371	69967502.47992125
1615.132693503091	69624341.66245362
1645.1905877536624	69274794.56378208
1675.807864530767	68918742.33412676
1706.9949340384078	68556063.91189311
1738.7624002162504	68186635.98250979
1771.1210643450886	67810332.93650025
1804.0819287193826	67427026.82677431
1837.6562003881704	67036587.32512454
1871.8552949655793	66638881.677913405
1906.690840512252	66233774.66093573
1942.1746814890264	65821128.53344072
1978.3188827841643	65400802.99129881
2015.1357338155585	65023011.202718735
2052.6377527092523	64681919.55514717
2090.8376905557498	64334480.1339755
2129.748535745521	63980574.8060569
2169.3835183851843	63620083.23976668
2209.756114795903	63252882.86408795
2250.880052095462	62878848.82693656
2292.7693128656488	62497853.95270961
2335.438139906479	62109768.69904474
2378.9010410788933	61714461.11277417
2423.1727942376006	61311796.785059124
2468.2684522556924	60901638.8056896
2514.2033481427966	60488577.752667144
2560.9931002584594	60158533.74340719
2608.6536176225477	59822347.55897594
2657.2011053245064	59479904.892448306
2706.652070033241	59131089.30962799
2757.0233256095826	58775782.2094583
2808.3319988231724	58413862.783696815
2860.5955351757416	58045207.97583919
2913.831704832789	57669692.43927848
2968.0586086656026	57287188.49468619
3023.2946844057765	56897566.08659971
3079.5587129142264	56500692.739202134
3136.8698245668766	56096433.51127913
3195.2475057592133	55738351.69903896
3254.711605531848	55415759.95342798
3315.282342319423	55087164.72054023
3376.9803108250912	54752454.27445602
3439.8264890229243	54411514.8100172
3503.8422452906757	54064230.40413225
3569.0493456752292	53710482.97636131
3635.4699612933177	53350152.24876729
3703.126675869927	52983115.70502032
3772.0424934169973	52609248.54874077
3842.240846055061	52228423.66106713
3913.745601980384	51840511.557434216
3986.581073580439	51452469.26066704
4060.7720257003657	51145446.34162102
4136.343684063274	50832709.67380979
4213.321743847289	50514152.92339655
4291.732378422157	50189667.77765381
4371.602248248501	49859143.908135734
4452.958509942655	49522468.9331653
4535.828825510186	49179528.37962338
4620.241371751313	48830205.644026674
4706.224849841281	48474381.95288119
4793.808495089106	48111936.32229792
4883.02208687788	47742745.516857214
4973.895958790063	47366684.00770726
5066.461008921268	47038566.1938651
5160.7487103859075	46743275.74760911
5256.791122018419	46442489.89590286
5354.620899273607	46136106.36831581
5454.271305329836	45824020.9911474
5555.7762223988775	45506127.65200671
5659.170163246242	45182318.26373315
5764.488282925873	44852482.72764573
5871.766390733255	44516508.89610821
5981.040962380945	44174282.53439783
6092.349152400711	43825687.28186416
6205.7288067765	43470604.61236528
6321.218475812449	43117992.65034752
6438.8574272404185	42841285.93485981
6558.685659571435	42559429.66031353
6680.743915695614	42272327.992538475
6805.073696735206	41979883.31387404
6931.717276155407	41681996.189978436
7060.717714137772	41378565.33601986
7192.118872221193	41069487.58223853
7325.96542821523	40754657.838867955
7462.302891391108	40433969.06040307
7601.17761795533	40107312.20920381
7742.636826811269	39774576.21842115
7886.728615614156	39435647.95423296
8033.501977124735	39144380.65558445
8183.00681586739	38882152.28076567
8335.293965098195	38615043.79127176
8490.415204088747	38342964.367338285
8648.423275731726	38065821.49902945
8809.37190447399	37783520.954783894
8973.31581458352	37495966.74937479
9140.310748756232	37203061.11127397
9310.413487069076	36904704.449408434
9483.681866285926	36600795.31929841
9660.174799522645	36291230.388565086
9839.952296278227	35975904.40179651
10023.075482838643	35665204.525540106
10209.606623060476	35422864.33165037
10399.609139541202	35176014.145516746
10593.1476351837	34924570.03541614
10790.287915161836	34668446.50764184
10991.097009294961	34407556.47743471
11195.643194838794	34141811.23937341
11403.99601970033	33871120.43721366
11616.22632608502	33595392.033166066
11832.40627458378	33314532.27660233
12052.609368708414	33028445.672178954
12276.910479883603	32737034.947367895
12505.385872903913	32440201.019382857
12738.113231864783	32188866.725112304
12975.171686575868	31962137.17433046
13216.641839466038	31731188.14802915
13462.60579298911	31495941.121051002
13713.147177539455	31256316.106872145
13968.351179887397	31012231.63040576
14228.30457214352	30763604.70029995
14493.09574126215	30510350.780719474
14762.81471909391	30252383.76260292
15037.553212997384	29989615.93438461
15317.404637020798	29721957.95217165
15602.46414366368	29449318.809366107
15892.828656229764	29182854.29910082
16188.596901781993	28975763.28250855
16489.86944471065	28764818.266859733
16796.74872092653	28549947.528576165
17109.339072690134	28331078.009291567
17427.746784089173	28108135.29101114
17752.08011717636	27881043.57080846
18082.44934877952	27649725.635051798
18418.96680799711	27414102.8331506
18761.746914391195	27174095.05081337
19110.90621689136	26929620.6828081
19466.56343342263	26680596.605215453
19828.83949127071	26426938.147165895
20197.857568198782	26215189.113386042
20573.743134329114	26023474.22371871
20956.623994804308	25828191.487333223
21346.630333242454	25629274.505995065
21743.8947560008	25426655.645787317
22148.55233726359	25220266.01411429
22560.74066496859	25010035.43627741
22980.599887588487	24795892.431614988
23408.272761782944	24577764.189198054
23843.904700937208	24355576.54307394
24287.643824604504	24129253.94704893
24739.64100886812	23898719.449001715
25200.049937640895	23675272.205958337
25669.027154919517	23501800.834047116
26146.732118010917	23325101.130387466
26633.327251749808	23145113.0151762
27128.978003724646	22961775.290514804
27633.852900531667	22775025.619601432
28148.123605075813	22584800.505535778
28671.964974937695	22391035.269729454
29205.55512182745	22193664.029914446
29749.075472144435	21992619.67774257
30302.71082866393	21787833.85596794
30866.649433372742	21579236.935204472
31441.08303147265	21366757.990251623
32026.206936576502	21191743.69914605
32622.220097116733	21032473.421624403
33229.325163989684	20870239.09713733
33847.72855945983	20704985.56426638
34477.640547344636	20536656.63502984
35119.275304507275	20365195.075778037
35772.850993678774	20190542.587733325
36438.58983763541	20012639.787167966
37116.71819475767	19831426.185212843
37807.466635993485	19646840.16729078
38511.070023255685	19458818.972166754
39227.76758927723	19267298.67060853
39957.803018952654	19083218.097884182
40701.42453219439	18940135.648708634
41458.88496832911	18794390.410807617
42230.441872066716	18645932.829229835
43016.35758106799	18494712.426797926
43816.89931514194	18340677.78694571
44632.33926710397	18183776.536235962
45462.95469532399	18023955.3265528
46309.02801799736	17861159.8169629
47170.84690917023	17695334.6552389
48048.704396551344	17526423.459039073
48942.89896114532	17354368.79673672
49853.73463873894	17179112.167892803
50781.5211232767	17036559.814431306
51726.57387216024	16906001.398246903
52689.21421350677	16773013.267722035
53669.76945540476	16637550.205459366
54668.57299720181	16499566.152558146
55685.96444286408	16359014.19295362
56722.28971644549	16215846.537465084
57777.90117970507	16070014.507547094
58853.1577519145	15921468.518738136
59948.42503189408	15770158.06380145
61064.07542232036	15616031.695552018
62200.48825634718	15459037.009363925
63358.04992658254	15309403.740764687
64537.15401646702	15192733.724686483
65738.20143409586	15073892.459756963
66961.60054853215	14952839.538665557
68207.76732865692	14829533.80211474
69477.1254846024	14703933.324825529
70770.10661181889	14575995.40128229
72087.15033782135	14445676.531212509
73428.70447166759	14312932.404796194
74795.22515621828	14177717.88760006
76187.17702322999	14039987.005231354
77605.0333513357	13899692.927706033
79049.2762269642	13756787.953526089
80520.39670825469	13641918.129738633
82018.8949920221	13535936.886758404
83545.28058382872	13427983.31481298
85100.07247122246	13318020.7085247
86683.79930019773	13206011.679422611
88296.99955494082	13091918.143229922
89940.22174092053	12975701.306914978
91614.0245713852	12857321.65550123
93318.9771573324	12736738.93863167
95055.65920101192	12613912.156883307
96824.66119303115	12488799.547826895
98626.5846131283	12361358.571827266
100462.04213468132	12240906.950018862
102331.65783302448	12146557.172683723
104236.06739764012	12050451.529938195
106175.9183482999	11952557.344828231
108151.87025522892	11852841.332276076
110164.59496336569	11751269.587763056
112214.77682079801	11647807.575801613
114303.11291144785	11542420.11819289
116430.31329208757	11435071.382065758
118597.10123376705	11325724.867693262
120804.21346773289	11214343.396082342
123052.40043592616	11100889.096332524
125342.42654613995	10985323.39275943
127675.07043192645	10893468.379286876
130051.12521734099	10808033.659395704
132471.39878661174	10721008.98483013
134936.71405883064	10632364.766263125
137447.90926775365	10542070.863705242
140005.8382468096	10450096.576256711
142611.37071941295	10356410.631668784
145265.39259467812	10260981.175710857
147968.80626863963	10163775.761339664
150722.53093107554	10064761.337666938
153527.5028780421	9963904.238721766
156384.67583022476	9861170.17200378
159295.0212572123	9764877.656288175
162259.5287078087	9689019.961920053
165279.2061464897	9611750.542952083
168355.08029612005	9533043.126949279
171488.19698705408	9452870.95254212
174679.62151272455	9371206.760327468
177930.43899185772	9288022.78360005
181241.75473742394	9203290.738911483
184614.69463245454	9116981.81645361
188050.40551285836	9029066.670262797
191550.0555573528	8939515.408242103
195114.83468466165	8848297.581997514
198745.9549580986	8755382.176485248
202444.65099768018	8682323.361884227
206212.18039991445	8613783.536979785
210049.8241653915	8543968.174271425
213958.88713434213	8472853.535783557
217940.6984302958	8400415.441772843
221996.61191199525	8326629.262506828
226128.00663372793	8251469.909889503
230336.2873142131	8174911.828931161
234622.88481422624	8096928.989059367
238989.25662310526	8017494.8752683075
243436.8873543108	7936582.479103422
247967.289250216	7854164.289478166
252582.00269627848	7777553.866088195
257282.59674479323	7716806.829427895
262070.66964838552	7654929.280078872
266947.8494034318	7591900.179007643
271915.7943036019	7527698.095640686
276976.1935036891	7462301.200577907
282130.76759394706	7395687.258170337
287381.2691851069	7327833.618959798
292729.4835042813	7258717.211977861
298177.22900196735	7188314.536901406
303726.3579703311	7116601.656062353
309378.75717301364	7043554.186308509
315136.34848664823	6969147.290713069
321001.08955431683	6911251.062765025
326974.97445117676	6856445.295299152
333060.03436245886	6800619.583175218
339258.33827409917	6743754.945049579
345571.9936762143	6685832.046332557
352003.1472796675	6626831.1926144995
358553.9857459817	6566732.322969386
365226.7364308175	6505515.003134002
372023.6681413066	6443158.418559987
378947.09190746717	6379641.367336697
385999.36176797637	6314942.252982352
393182.87557057705	6249039.077100918
400500.07578736113	6188286.449890012
407953.45034524484	6139770.525546141
415545.53347188793	6090351.711594948
423278.90655735444	6040013.205107228
431156.19903182285	5988737.890448369
439180.0892596086	5936508.333458908
447353.3054498463	5883306.775526701
455678.6265841068	5829115.127548812
464158.8833612772	5773914.96378103
472796.9591600391	5717687.5155728785
481595.79101923504	5660413.664986147
490558.37063650455	5602073.938294506
499687.7453854889	5542648.499362274
508987.0193519675	5496881.0714775855
518459.3543892913	5453153.052910007
528107.971193433	5408611.248476308
537936.1503980698	5363240.51348304
547947.2336900292	5317025.421391445
558144.6249454955	5269950.258572258
568531.7913873753	5221999.018962877
579112.2647641759	5173155.398625181
589889.6425508494	5123402.790201965
600867.5891719692	5072724.277270285
612049.837247669	5021102.628589707
623440.1888627863	4968520.292243442
635042.5168595961	4920448.173681963
646860.7661546321	4881769.336429059
658898.9550799957	4842370.679433445
671161.1767496272	4802238.80672723
683651.6004510238	4761360.0730412705
696374.4730628222	4719720.579165652
709334.1204987989	4677306.1672238065
722534.9491787221	4634102.41585865
735981.4475265755	4590094.63532922
749678.1874966878	4545267.862515941
763629.8261282243	4499606.85583307
777841.1071286482	4453096.090046337
792316.8624866261	4405719.750994221
807062.0141149492	4369599.587031067
822081.575524054	4334760.144105531
837380.6535266489	4299272.333219012
852964.4499741016	4263124.088133433
868838.2635251193	4226303.118055967
885007.4914473438	4188796.9034600565
901477.6314524917	4150592.6918286076
918254.2835656281	4111677.493318025
935343.1520292377	4072038.076341506
952750.0472427299	4031660.963070165
970480.8877380306	3990532.424850442
988541.7021919573	3948638.477536183
1006938.6314760271	3910655.106210529
1025677.9307444209	3879854.337953009
1044765.9715608053	3848480.3621572778
1064209.2440647245	3816522.511333523
1084014.359178331	3783969.9194681165
1104188.0508541602	3750811.5183290797
1124737.1783647507	3717036.0337027414
1145668.7286348727	3682631.981560404
1166989.8186171474	3647587.664153649
1188707.6977119034	3611891.1660369528
1210829.7502320393	3575530.3500163336
1233363.4979137746	3538492.853022559
1256316.6024741214	3500766.081907574
1279696.8682159416	3472290.6919617723
1303512.2446815087	3444558.7504750667
1327770.829355429	3416310.7128385366
1352480.8704178738	3387536.9744150187
1377650.769549055	3358227.7518234137
1403289.084785873	3328373.0796122397
1429404.533431761	3297962.806871267
1456005.9950206485	3266986.5937800957
1483102.514336103	3235433.9080925095
1510703.3044866556	3203294.0215553953
1538817.7500383465	3170556.0062610344
1567455.410205595	3137208.730931478
1596626.022101425	3107225.414816028
1626339.5040481905	3082716.3141851234
1656605.9589499151	3057751.0950211077
1687435.6777273756	3032321.268880468
1718839.1428171454	3006418.189348314
1750827.0317357269	2980033.049098501
1783410.220710006	2953156.8768990566
1816599.7883753285	2925780.5345618324
1850407.019542302	2897894.713835466
1884843.4090337954	2869489.933240445
1919920.6655932867	2840556.5348453037
1955650.715865947	2811084.680982844
1992045.7084538713	2781064.350905186
2029118.0180466783	2758632.074508745
2066880.2496290822	2736570.7486225553
2105345.242766708	2714098.857707756
2144526.0759716653	2691208.761079309
2184436.0711494284	2667892.6758577167
2225088.7981283693	2644142.67432278
2266498.079273693	2619950.681218076
2308677.994187172	2595308.4710052763
2351642.884494346	2570207.6650674026
2395407.358720879	2544639.7288599685
2439986.29725955	2518595.9690091806
2485394.857429798	2492067.5303560668
2531648.478631358	2468414.246906371
2578762.8875937983	2448920.858010898
2626754.1037238385	2429064.693831159
2675638.4445520453	2408839.003057392
2725432.531281028	2388236.9087368012
2776153.2944368036	2367251.4059353354
2827817.979625338	2345875.359355929
2880444.1533962977	2324101.500912413
2934049.709215787	2301922.4272583136
2988652.873550383	2279330.597269609
3044272.2120643063	2256318.3294806774
3100926.6359319235	2232877.7994725257
3158635.408267819	2209001.0372123704
3217418.1506763715	2191338.1536491774
3277294.849923382	2173794.5485152523
3338285.8647317644	2155924.4539046353
3400411.9327037027	2137721.793792615
3463694.1773717343	2119180.379078614
3528154.1153808828	2100293.905481855
3593813.6638046256	2081055.951397815
3660695.147596906	2061459.9757148155
3728821.30718283	2041499.3155899874
3798215.306190736	2021167.184183806
3868900.7393279755	2000456.668352524
3940901.6404034477	1979360.7262976049
4014242.490499326	1960709.0156426646
4088948.226294856	1945209.5507523168
4165044.248545185	1929421.63818303
4242556.430717777	1913339.9098744232
4321511.127789762	1896958.897865591
4401935.1852088785	1880273.0324359457
4483855.948021181	1863276.6402114579
4567301.270168747	1845963.9422356312
4652299.523960189	1828329.0520046172
4738879.609717651	1810365.973465722
4827070.965603188	1792068.598978691
4916903.577628021	1773430.7072390534
5008407.989848212	1754445.9611627872
5101615.314749833	1740543.277618877
5196557.243827657	1726595.5893757646
5293266.058360566	1712388.332281164
5391774.640387494	1697916.6757145866
5492116.483887789	1683175.6991568631
5594325.706169377	1668160.3905171372
5698437.0594691355	1652865.6444286816
5804485.942768984	1637286.2605130253
5912508.413831869	1621416.9416117766
6022541.201461928	1605252.2919855127
6134621.717992506	1588786.8154791947
6248788.072006888	1572014.9136533942
6365079.081295578	1557311.4838991873
6483534.286054714	1544989.982330535
6604193.962330305	1532439.1755211095
6727099.135712336	1519654.7960613677
6852291.595284057	1506632.4971245409
6979813.907830667	1493367.8509886772
7109709.432312423	1479856.3475311685
7242022.334607315	1466093.3926952498
7376797.60252773	1452074.3069279874
7514081.061116962	1437794.3235891648
7653919.388230155	1423248.5873305807
7796360.130405221	1408432.1524451827
7941451.71902934	1393339.9811854602
8089243.486805938	1382399.7879735632
8239785.684528512	1371312.626902122
8393129.498166373	1360019.1318765935
8549327.066268368	1348515.4629869862
8708431.497690724	1336797.7088619226
8870496.889654402	1324861.885338748
9035578.34613892	1312703.934108855
9203731.99661823	1300319.7213378241
9375015.01514529	1287705.036259878
9549485.639791967	1274855.5897461679
9727203.192450536	1261767.0128464268
9908228.099003786	1248434.8553034822
10092621.909870483	1236846.33933508
10280447.320933098	1227052.3624255576
10471768.194855202	1217076.1179392457
10666649.582795387	1206914.2138455259
10865157.746525371	1196563.194987513
11067360.180959744	1186019.5419072644
11273325.63710487	1175279.6696491265
11483124.14543511	1164339.9265408127
11696827.039703846	1153196.5929517897
11914506.981197748	1141845.8800285705
12136237.983442418	1130283.928406457
12362095.437367693	1118506.8068973224
12592156.13694151	1106554.6973545072
12826498.3052806	1097903.2251667695
13065201.621247198	1089090.7476095192
13308347.24654076	1080114.268345432
13556017.853293689	1070970.7352748385
13808297.652180923	1061657.0394979753
14065272.421052363	1052170.0142579232
14327029.534098294	1042506.4338638799
14593657.991557576	1032663.0125943867
14865248.449978571	1022636.4035801518
15141893.25304352	1012423.1976660752
15423686.462966273	1002019.9222520995
15710723.892474487	991423.0401124902
16003103.137387017	982290.9693900377
16300923.609797413	974506.6090204251
16604286.571875297	966577.3803797783
16913295.17029647	958500.5874449231
17228054.471313924	950273.4840192358
17548671.49648152	941893.2727989054
17875255.259042352	933357.104421822
18207916.800994623	924662.076498761
18546769.230846975	915805.2326265408
18891927.762076646	906783.5613828144
19243509.75230332	897593.9953021491
19601634.743191857	888233.4098330643
19966424.501097932	878803.9629964322
20338003.0584698	871927.8458687296
20716496.75602067	864923.7630312672
21102034.285685964	857789.333020413
21494746.734379806	850522.1300530914
21894767.628566206	843119.68320199
