# Frequency (Hz)	Imaginary Part (Ohm/m)
1000.0	1332393.2226892337
1018.6101701559753	1330088.2381594745
1037.566678745186	1327740.3574754093
1056.875971184804	1325348.7823323077
1076.5446128423157	1322912.6995688523
1096.5792912678098	1320431.280890655
1116.9868184678226	1317903.6825886283
1137.7741332214914	1315329.0452521145
1158.9483034398106	1312706.4934766786
1180.5165285688054	1310035.135566459
1202.4861420374123	1307314.0632309825
1224.8646137509306	1304542.3512763365
1247.6595526308697	1301719.0572905906
1270.8787092020582	1299014.9007429525
1294.529978227916	1296425.236646598
1318.6214013947485	1293787.3784607633
1343.1611700460153	1291100.4292852432
1368.1576279674719	1288363.475528366
1393.619274224142	1285575.5865963644
1419.5547660501015	1282735.814576962
1445.9729217920194	1279843.1939170745
1472.882723907502	1276896.74109451
1500.2933220192183	1273895.4542835606
1528.2140360258693	1270838.313014373
1556.654359271062	1267724.2778259746
1585.6239617711371	1264562.20743581
1615.132693503091	1261731.6601397977
1645.1905877536624	1258848.4358769718
1675.807864530767	1255911.5543200173
1706.9949340384078	1252920.0168975596
1738.7624002162504	1249872.8064546422
1771.1210643450886	1246768.886906881
1804.0819287193826	1243607.2028881854
1837.6562003881704	1240386.6793919227
1871.8552949655793	1237106.2214054028
1906.690840512252	1233764.7135375647
1942.1746814890264	1230361.0196397281
1978.3188827841643	1226893.9824192943
2015.1357338155585	1223614.6210678334
2052.6377527092523	1220493.2474577257
2090.8376905557498	1217313.7845536135
2129.748535745521	1214075.1513038508
2169.3835183851843	1210776.2465382377
2209.756114795903	1207415.9485936079
2250.880052095462	1203993.114932454
2292.7693128656488	1200506.5817544502
2335.438139906479	1196955.1636007493
2378.9010410788933	1193337.6529509132
2423.1727942376006	1189652.8198123425
2468.2684522556924	1185899.4113020666
2514.2033481427966	1182103.3415969727
2560.9931002584594	1178758.0348338317
2608.6536176225477	1175350.4713426048
2657.2011053245064	1171879.4925149889
2706.652070033241	1168343.9181807833
2757.0233256095826	1164742.5462066194
2808.3319988231724	1161074.152087221
2860.5955351757416	1157337.4885290612
2913.831704832789	1153531.2850262686
2968.0586086656026	1149654.2474286407
3023.2946844057765	1145705.0575016201
3079.5587129142264	1141682.372478079
3136.8698245668766	1137584.8246017662
3195.2475057592133	1133764.669454171
3254.711605531848	1130151.0279057352
3315.282342319423	1126470.1358732
3376.9803108250912	1122720.7418136133
3439.8264890229243	1118901.5708925964
3503.8422452906757	1115011.324550884
3569.0493456752292	1111048.6800628044
3635.4699612933177	1107012.2900865336
3703.126675869927	1102900.7822059887
3772.0424934169973	1098712.758464189
3842.240846055061	1094446.7948879371
3913.745601980384	1090101.4410036523
3986.581073580439	1085728.5691283809
4060.7720257003657	1081938.4009566086
4136.343684063274	1078077.6971102399
4213.321743847289	1074145.1449083684
4291.732378422157	1070139.407240873
4371.602248248501	1066059.1221137852
4452.958509942655	1061902.9021861972
4535.828825510186	1057669.3342985515
4620.241371751313	1053356.9789921495
4706.224849841281	1048964.3700197227
4793.808495089106	1044490.0138468902
4883.02208687788	1039932.3891443426
4973.895958790063	1035289.9462705738
5066.461008921268	1031032.1393958401
5160.7487103859075	1027028.8815300412
5256.791122018419	1022951.1223541817
5354.620899273607	1018797.475386204
5454.271305329836	1014566.5283413844
5555.7762223988775	1010256.84265214
5659.170163246242	1005866.9529788999
5764.488282925873	1001395.366711875
5871.766390733255	996840.5634635532
5981.040962380945	992200.9945517534
6092.349152400711	987475.0824730546
6205.7288067765	982661.2203664293
6321.218475812449	977846.0932367721
6438.8574272404185	973743.6229031408
6558.685659571435	969564.8048985407
6680.743915695614	965308.2183798243
6805.073696735206	960972.4160617111
6931.717276155407	956555.9237246949
7060.717714137772	952057.2397137943
7192.118872221193	947474.8344279729
7325.96542821523	942807.1498000588
7462.302891391108	938052.5987669849
7601.17761795533	933209.5647301697
7742.636826811269	928276.4010058588
7886.728615614156	923251.4302652308
8033.501977124735	918725.881684482
8183.00681586739	914494.7090306343
8335.293965098195	910184.7935337389
8490.415204088747	905794.6697760887
8648.423275731726	901322.8450683025
8809.37190447399	896767.7989417971
8973.31581458352	892127.982631809
9140.310748756232	887401.8185507994
9310.413487069076	882587.6997520572
9483.681866285926	877683.9893833193
9660.174799522645	872689.0201302237
9839.952296278227	867601.0936494041
10023.075482838643	862547.9647860684
10209.606623060476	858315.5948100005
10399.609139541202	854004.4597085156
10593.1476351837	849613.0936492265
10790.287915161836	845140.0035203568
10991.097009294961	840583.6684230659
11195.643194838794	835942.5391543263
11403.99601970033	831215.0376801802
11616.22632608502	826399.5565991874
11832.40627458378	821494.4585958945
12052.609368708414	816498.0758841286
12276.910479883603	811408.7096399319
12505.385872903913	806224.629423945
12738.113231864783	801646.5105347423
12975.171686575868	797386.3154201785
13216.641839466038	793046.8373496349
13462.60579298911	788626.60085381
13713.147177539455	784124.1030046685
13968.351179887397	779537.8129044278
14228.30457214352	774866.1711650366
14493.09574126215	770107.5893779679
14762.81471909391	765260.4495741399
15037.553212997384	760323.1036737937
15317.404637020798	755293.872926123
15602.46414366368	750171.0473384844
15892.828656229764	745124.4096748325
16188.596901781993	740964.8375208473
16489.86944471065	736727.855021301
16796.74872092653	732412.0215564902
17109.339072690134	728015.8696965344
17427.746784089173	723537.9047024333
17752.08011717636	718976.604017839
18082.44934877952	714330.4167513723
18418.96680799711	709597.7631493002
18761.746914391195	704777.0340584043
19110.90621689136	699866.5903788508
19466.56343342263	694864.762506879
19828.83949127071	689769.8497671195
20197.857568198782	685361.4009961503
20573.743134329114	681272.6057645709
20956.623994804308	677107.7173579988
21346.630333242454	672865.3196694994
21743.8947560008	668543.9702381482
22148.55233726359	664142.1997585761
22560.74066496859	659658.5115813917
22980.599887588487	655091.3812043034
23408.272761782944	650439.2557537724
23843.904700937208	645700.5534570208
24287.643824604504	640873.6631042081
24739.64100886812	635956.9435006051
25200.049937640895	631156.3930902042
25669.027154919517	627254.5969044439
26146.732118010917	623280.187627753
26633.327251749808	619231.8139181534
27128.978003724646	615108.0992849633
27633.852900531667	610907.6416207748
28148.123605075813	606629.0127247222
28671.964974937695	602270.7578168805
29205.55512182745	597831.3950436205
29749.075472144435	593309.4149737656
30302.71082866393	588703.2800853698
30866.649433372742	584011.4242429386
31441.08303147265	579232.2521649328
32026.206936576502	575180.4160333505
32622.220097116733	571427.6442142664
33229.325163989684	567605.0326730735
33847.72855945983	563711.2816806579
34477.640547344636	559745.0673197288
35119.275304507275	555705.0410346678
35772.850993678774	551589.8291730067
36438.58983763541	547398.0325183731
37116.71819475767	543128.2258147367
37807.466635993485	538778.9572818129
38511.070023255685	534348.7481214374
39227.76758927723	529836.0920147602
39957.803018952654	525471.5085685168
40701.42453219439	521962.52094683977
41458.88496832911	518388.2304684485
42230.441872066716	514747.4218360676
43016.35758106799	511038.8571355322
43816.89931514194	507261.27541488584
44632.33926710397	503413.3922556402
45462.95469532399	499493.8993360606
46309.02801799736	495501.4639863226
47170.84690917023	491434.7287353886
48048.704396551344	487292.31084945594
48942.89896114532	483072.801861809
49853.73463873894	478774.7670939272
50781.5211232767	475201.1751670521
51726.57387216024	471888.67719639227
52689.21421350677	468514.5330748575
53669.76945540476	465077.59555709024
54668.57299720181	461576.69604730187
55685.96444286408	458010.64420193736
56722.28971644549	454378.2275249452
57777.90117970507	450678.2109555172
58853.1577519145	446909.3364481522
59948.42503189408	443070.32254490856
61064.07542232036	439159.86393969454
62200.48825634718	435176.6310344491
63358.04992658254	431361.15464692254
64537.15401646702	428315.55482948734
65738.20143409586	425213.27588122274
66961.60054853215	422053.26299385965
68207.76732865692	418834.44172896724
69477.1254846024	415555.7176526339
70770.10661181889	412215.9759633455
72087.15033782135	408814.0811129424
73428.70447166759	405348.87642052054
74795.22515621828	401819.1836791472
76187.17702322999	398223.8027552588
77605.0333513357	394561.5111806014
79049.2762269642	390831.06373657874
80520.39670825469	387784.58338778134
82018.8949920221	384952.0456864977
83545.28058382872	382066.79397662036
85100.07247122246	379127.8472414794
86683.79930019773	376134.206207518
88296.99955494082	373084.85300452873
89940.22174092053	369978.7508195658
91614.0245713852	366814.8435444192
93318.9771573324	363592.0554165244
95055.65920101192	360309.29065319285
96824.66119303115	356965.4330790337
98626.5846131283	353559.3457464417
100462.04213468132	350327.9202568738
102331.65783302448	347757.1262036584
104236.06739764012	345138.48923567665
106175.9183482999	342471.11898814404
108151.87025522892	339754.1085264356
110164.59496336569	336986.53403771954
112214.77682079801	334167.4545168491
114303.11291144785	331295.911446412
116430.31329208757	328370.9284708238
118597.10123376705	325391.5110643563
120804.21346773289	322356.6461929891
123052.40043592616	319265.3019699654
125342.42654613995	316116.4273049405
127675.07043192645	313586.05155890866
130051.12521734099	311221.4368156948
132471.39878661174	308812.8161897566
134936.71405883064	306359.37072412856
137447.90926775365	303860.26622091676
140005.8382468096	301314.6529576626
142611.37071941295	298721.6653984277
145265.39259467812	296080.4218995034
147968.80626863963	293390.02440964076
150722.53093107554	290649.5581647046
153527.5028780421	287858.0913766434
156384.67583022476	285014.67491667136
159295.0212572123	282342.3031784701
162259.5287078087	280216.1136182511
165279.2061464897	278050.35530853237
168355.08029612005	275844.2918681535
171488.19698705408	273597.1732117738
174679.62151272455	271308.2352948385
177930.43899185772	268976.69985379255
181241.75473742394	266601.7741414638
184614.69463245454	264182.6506575213
188050.40551285836	261718.50687391375
191550.0555573528	259208.50495520481
195114.83468466165	256651.79147369685
198745.9549580986	254047.4971192577
202444.65099768018	251984.65536284362
206212.18039991445	250044.08121007014
210049.8241653915	248067.39264211347
213958.88713434213	246053.9175635617
217940.6984302958	244002.9713711931
221996.61191199525	241913.8567212042
226128.00663372793	239785.86329210325
230336.2873142131	237618.2675431961
234622.88481422624	235410.33246857245
238989.25662310526	233161.30734651646
243436.8873543108	230870.42748425444
247967.289250216	228536.91395794833
252582.00269627848	226363.7160765215
257282.59674479323	224629.8802002039
262070.66964838552	222863.7773432053
266947.8494034318	221064.80701152544
271915.7943036019	219232.35753586705
276976.1935036891	217365.8058636646
282130.76759394706	215464.51734723756
287381.2691851069	213527.845528004
292729.4835042813	211555.13191667866
298177.22900196735	209545.70576937706
303726.3579703311	207498.88385955858
309378.75717301364	205413.97024571942
315136.34848664823	203290.25603476595
321001.08955431683	201629.76683079725
326974.97445117676	200055.46788620518
333060.03436245886	198451.87097037808
339258.33827409917	196818.43084308584
345571.9936762143	195154.5921170849
352003.1472796675	193459.7890692813
358553.9857459817	191733.44544837694
365226.7364308175	189974.97427893995
372023.6681413066	188183.77766182538
378947.09190746717	186359.24657088338
385999.36176797637	184500.7606458844
393182.87557057705	182607.68798158833
400500.07578736113	180860.2896872199
407953.45034524484	179459.57933865816
415545.53347188793	178032.80153217024
423278.90655735444	176579.47114792917
431156.19903182285	175099.0940379442
439180.0892596086	173591.16685804754
447353.3054498463	172055.1768967502
455678.6265841068	170490.60190091506
464158.8833612772	168896.90989818602
472796.9591600391	167273.55901610956
481595.79101923504	165619.99729789505
490558.37063650455	163935.66251474113
499687.7453854889	162219.9819746729
508987.0193519675	160894.4392717855
518459.3543892913	159626.8793279622
528107.971193433	158335.72987790158
537936.1503980698	157020.55191687855
547947.2336900292	155680.89827021534
558144.6249454955	154316.31344123793
568531.7913873753	152926.33345640072
579112.2647641759	151510.4857075324
589889.6425508494	150068.28879114272
600867.5891719692	148599.25234474047
612049.837247669	147102.87688010564
623440.1888627863	145578.6536134564
635042.5168595961	144183.9356801594
646860.7661546321	143059.16831191845
658898.9550799957	141913.46883156855
671161.1767496272	140746.44768894196
683651.6004510238	139557.70808427525
696374.4730628222	138346.84583329462
709334.1204987989	137113.44922978786
722534.9491787221	135857.09890561985
735981.4475265755	134577.36768814386
749678.1874966878	133273.8204549564
763629.8261282243	131946.01398595315
777841.1071286482	130593.49681262756
792316.8624866261	129215.80906456732
807062.0141149492	128163.28471505549
822081.575524054	127147.6151463748
837380.6535266489	126113.04379419879
852964.4499741016	125059.2188931203
868838.2635251193	123985.78213131802
885007.4914473438	122892.36852872703
901477.6314524917	121778.60631294096
918254.2835656281	120644.11679280586
935343.1520292377	119488.51422966081
952750.0472427299	118311.40570618286
970480.8877380306	117112.39099279106
988541.7021919573	115891.06241156351
1006938.6314760271	114783.07658015049
1025677.9307444209	113883.35876501468
1044765.9715608053	112966.89704824671
1064209.2440647245	112033.37982298838
1084014.359178331	111082.48968332443
1104188.0508541602	110113.90331636171
1124737.1783647507	109127.29139229907
1145668.7286348727	108122.31845245157
1166989.8186171474	107098.6427951915
1188707.6977119034	106055.91635976527
1210829.7502320393	104993.78460794961
1233363.4979137746	103911.88640350463
1256316.6024741214	102809.85388938335
1279696.8682159416	101976.95075925534
1303512.2446815087	101165.60150977584
1327770.829355429	100339.15291270758
1352480.8704178738	99497.3239666227
1377650.769549055	98639.82844060886
1403289.084785873	97766.37477694804
1429404.533431761	96876.66599198311
1456005.9950206485	95970.39957514075
1483102.514336103	95047.26738607428
1510703.3044866556	94106.95554989271
1538817.7500383465	93149.14435044026
1567455.410205595	92173.50812158866
1596626.022101425	91295.93853915733
1626339.5040481905	90577.98750326145
1656605.9589499151	89846.67527642382
1687435.6777273756	89101.75320460768
1718839.1428171454	88342.9680062821
1750827.0317357269	87570.06168630376
1783410.220710006	86782.77144819617
1816599.7883753285	85980.82960479507
1850407.019542302	85163.96348723318
1884843.4090337954	84331.8953522288
1919920.6655932867	83484.34228765054
1955650.715865947	82621.01611632445
1992045.7084538713	81741.62329804967
2029118.0180466783	81083.93929491294
2066880.2496290822	80437.05587770845
2105345.242766708	79778.13385003862
2144526.0759716653	79106.94917131448
2184436.0711494284	78423.27363151306
2225088.7981283693	77726.87477358454
2266498.079273693	77017.51581441352
2308677.994187172	76294.9555643106
2351642.884494346	75558.94834500547
2395407.358720879	74809.2439061129
2439986.29725955	74045.58734004591
2485394.857429798	73267.71899534369
2531648.478631358	72573.96967564874
2578762.8875937983	72001.9389723639
2626754.1037238385	71419.26268035638
2675638.4445520453	70825.7426834088
2725432.531281028	70221.17717832705
2776153.2944368036	69605.36060632524
2827817.979625338	68978.08358313373
2880444.1533962977	68339.13282780556
2934049.709215787	67688.29109019952
2988652.873550383	67025.337077112
3044272.2120643063	66350.04537703528
3100926.6359319235	65662.18638351535
3158635.408267819	64961.52621708256
3217418.1506763715	64442.919993123
3277294.849923382	63927.788945011715
3338285.8647317644	63403.07122044239
3400411.9327037027	62868.58840973509
3463694.1773717343	62324.15878297497
3528154.1153808828	61769.59722822294
3593813.6638046256	61204.71518857502
3660695.147596906	60629.320598051134
3728821.30718283	60043.2178162909
3798215.306190736	59446.20756203307
3868900.7393279755	58838.086845358725
3940901.6404034477	58218.6488986717
4014242.490499326	57670.88250484559
4088948.226294856	57215.552264601436
4165044.248545185	56751.74825110906
4242556.430717777	56279.3127660066
4321511.127789762	55798.08517613869
4401935.1852088785	55307.90185893953
4483855.948021181	54808.59614679978
4567301.270168747	54299.99827039713
4652299.523960189	53781.93530097373
4738879.609717651	53254.231091537855
4827070.965603188	52716.706216972285
4916903.577628021	52169.17791302811
5008407.989848212	51611.460014182194
5101615.314749833	51202.89010891492
5196557.243827657	50792.98948690024
5293266.058360566	50375.460544562775
5391774.640387494	49950.16131756346
5492116.483887789	49516.947199582384
5594325.706169377	49075.67089315176
5698437.0594691355	48626.18235957266
5804485.942768984	48168.32876790044
5912508.413831869	47701.95444298079
6022541.201461928	47226.90081251788
6134621.717992506	46743.00635315892
6248788.072006888	46250.10653557374
6365079.081295578	45817.944519922654
6483534.286054714	45455.72540327138
6604193.962330305	45086.76532722541
6727099.135712336	44710.9388413835
6852291.595284057	44328.11816069095
6979813.907830667	43938.173121991436
7109709.432312423	43540.97113977034
7242022.334607315	43136.37716107373
7376797.60252773	42724.25361958953
7514081.061116962	42304.460388873034
7653919.388230155	41876.85473470252
7796360.130405221	41441.291266548345
7941451.71902934	40997.62188813799
8089243.486805938	40675.934274967614
8239785.684528512	40349.92383864069
8393129.498166373	40017.84629262106
8549327.066268368	39679.588726965114
8708431.497690724	39335.03613045567
8870496.889654402	38984.07135149756
9035578.34613892	38626.575058284274
9203731.99661823	38262.42569822412
9375015.01514529	37891.49945661109
9549485.639791967	37513.67021452633
9727203.192450536	37128.80950595648
9908228.099003786	36736.78647411379
10092621.909870483	36396.00749356706
10280447.320933098	36107.96843040305
10471768.194855202	35814.568911261995
10666649.582795387	35515.70917714605
10865157.746525371	35211.287612525426
11067360.180959744	34901.200710788034
11273325.63710487	34585.3430390462
11483124.14543511	34263.60720228819
11696827.039703846	33935.88380686283
11914506.981197748	33602.06142328451
12136237.983442418	33262.02654834589
12362095.437367693	32915.663566525734
12592156.13694151	32564.153758996767
12826498.3052806	32309.67842407025
13065201.621247198	32050.467259860256
13308347.24654076	31786.432131777958
13556017.853293689	31517.48326503492
13808297.652180923	31243.52921411854
14065272.421052363	30964.476831699685
14327029.534098294	30680.231236961587
14593657.991557576	30390.69578333929
14865248.449978571	30095.77202565893
15141893.25304352	29795.359686665102
15423686.462966273	29489.35662292564
15710723.892474487	29177.658790101734
16003103.137387017	28909.033671874735
16300923.609797413	28680.037759882776
16604286.571875297	28446.78019500363
16913295.17029647	28209.181667151912
17228054.471313924	27967.161390268062
17548671.49648152	27720.637074850187
17875255.259042352	27469.524899974822
18207916.800994623	27213.73948479679
18546769.230846975	26953.193859518877
18891927.762076646	26687.799435821147
19243509.75230332	26417.46597673993
19601634.743191857	26142.101565986388
19966424.501097932	25864.710779494708
20338003.0584698	25662.41552763511
20716496.75602067	25456.355526716652
21102034.285685964	25246.460714118744
21494746.734379806	25032.659723343553
21894767.628566206	24814.879859750527
