Frequency [GHz]	Zx real [Ohm/m]	Zy real [Ohm/m]
1.000000000000000166e-10	2.341682663846811749e+02	2.661280735950057306e+02
1.032794731918951654e-10	2.399031741559642512e+02	2.721746397556464103e+02
1.066664958279539403e-10	2.458261566901864796e+02	2.784195014325554212e+02
1.101645949633656381e-10	2.519433818487790973e+02	2.848691616740296126e+02
1.137774133221491146e-10	2.582612197665357030e+02	2.915303367940912835e+02
1.175087130904807540e-10	2.647862494851124779e+02	2.984099633664805538e+02
1.213623798344240958e-10	2.715252658040732285e+02	3.055152054480138304e+02
1.253424265461399975e-10	2.784852863566116525e+02	3.128534620388302869e+02
1.294529978227915867e-10	2.856735589173210315e+02	3.204323747872950321e+02
1.336983741824946476e-10	2.930975689496191876e+02	3.282598359475827579e+02
1.380829765218092491e-10	3.007650474006902073e+02	3.363439965982281592e+02
1.426113707194128486e-10	3.086839787520583513e+02	3.446932751302011297e+02
1.472882723907502473e-10	3.168626093341792966e+02	3.533163660133469079e+02
1.521185517986104510e-10	3.253094559137051078e+02	3.622222488503182944e+02
1.571072389247450498e-10	3.340333145623668543e+02	3.714201977274295814e+02
1.622595287078087593e-10	3.430432698167103354e+02	3.809197908721700969e+02
1.675807864530767868e-10	3.523487041382217058e+02	3.907309206274313738e+02
1.730765534195724819e-10	3.619593076836964656e+02	4.008638037528385212e+02
1.787525525904235329e-10	3.718850883960244573e+02	4.113289920639095385e+02
1.846146946324547531e-10	3.821363824258995123e+02	4.221373834201233990e+02
1.906690840512252406e-10	3.927238648953066900e+02	4.333002330733393705e+02
1.969220255479172543e-10	4.036585610139946425e+02	4.448291653883842400e+02
2.033800305846981002e-10	4.149518575605101205e+02	4.567361859480126327e+02
2.100498241653915480e-10	4.266155147397499832e+02	4.690336940548476719e+02
2.169383518385184289e-10	4.386616784293773321e+02	4.817344956433171888e+02
2.240527869300018610e-10	4.511028928278579428e+02	4.948518166150365118e+02
2.314005380130653023e-10	4.639521135172830100e+02	5.083993166115183158e+02
2.389892566231049743e-10	4.772227209545850997e+02	5.223911032385567523e+02
2.468268452255692806e-10	4.909285344051951370e+02	5.368417467570959616e+02
2.549214654451423314e-10	5.050838263336490854e+02	5.517662952558820280e+02
2.632815465648021228e-10	5.197033372661313706e+02	5.671802903216971572e+02
2.719157943036017723e-10	5.348022911404303841e+02	5.830997832234957059e+02
2.808331998823172083e-10	5.503964111592938480e+02	5.995413516272944889e+02
2.900430493863991314e-10	5.665019361636876738e+02	6.165221168592228196e+02
2.995549334359813486e-10	5.831356375430146954e+02	6.340597617347110599e+02
3.093787571730138678e-10	6.003148366998966594e+02	6.521725489723808096e+02
3.195247505759212065e-10	6.180574230877106174e+02	6.708793402118145650e+02
3.300034791125284578e-10	6.363818728396620372e+02	6.901996156550095520e+02
3.408258547423451742e-10	6.553072680087909703e+02	7.101534943519644685e+02
3.520031472796679687e-10	6.748533164389517651e+02	7.307617551515293144e+02
3.635469961293320139e-10	6.950403722874544883e+02	7.520458583393316303e+02
3.754694224073336536e-10	7.158894572207417468e+02	7.740279679853135804e+02
3.877828414589456106e-10	7.374222823051713931e+02	7.967309750241479378e+02
4.005000757873611052e-10	7.596612706157027333e+02	8.201785210925751244e+02
4.136343684063274911e-10	7.826295805860266910e+02	8.443950231484737969e+02
4.271993966306778827e-10	8.063511301244590186e+02	8.694056988973104581e+02
4.412092863191189219e-10	8.308506215207061132e+02	8.952365930524418900e+02
4.556786265841064474e-10	8.561535671694439316e+02	9.219146044566178944e+02
4.706224849841281415e-10	8.822863161374914398e+02	9.494675140929240342e+02
4.860564232142136024e-10	9.092760816022519066e+02	9.779240140143404005e+02
5.019965133110081441e-10	9.371509691899843801e+02	1.007313737222031364e+03
5.184593543892912175e-10	9.659400062434275469e+02	1.037667288523490697e+03
5.354620899273606527e-10	9.956731720492429076e+02	1.069016276402669291e+03
5.530224256192902378e-10	1.026381429056762045e+03	1.101393345935276102e+03
5.711586478126431938e-10	1.058096755120540593e+03	1.134832212783526074e+03
5.898896425508497150e-10	1.090852176800303369e+03	1.169367698305737804e+03
6.092349152400710261e-10	1.124681803752945825e+03	1.205035765817341598e+03
6.292146109610343618e-10	1.159620864252418414e+03	1.241873558041055048e+03
6.498495354469890483e-10	1.195705741874471414e+03	1.279919435785231599e+03
6.711611767496282870e-10	1.232974013384467753e+03	1.319213017890649553e+03
6.931717276155404727e-10	1.271464487867717253e+03	1.359795222487349974e+03
7.159041085964887260e-10	1.311217247143077884e+03	1.401708309604479155e+03
7.393819919175865964e-10	1.352273687501912718e+03	1.444995925177510117e+03
7.636298261282244400e-10	1.394676562815861871e+03	1.489703146498669639e+03
7.886728615614152294e-10	1.438470029058324826e+03	1.535876529157897494e+03
8.145371766280743462e-10	1.483699690286011219e+03	1.583564155523226646e+03
8.412497049736117954e-10	1.530412646128444294e+03	1.632815684811057054e+03
8.688382635251186617e-10	1.578657540834871952e+03	1.683682404798480547e+03
8.973315814583522479e-10	1.628484613929654643e+03	1.736217285231487722e+03
9.267593301146878953e-10	1.679945752528886942e+03	1.790475032984689733e+03
9.571521538991863169e-10	1.733094545372725179e+03	1.846512149029984130e+03
9.885417021919573871e-10	1.787986338629692909e+03	1.904386987273495606e+03
1.020960662306046580e-09	1.833516286645868149e+03	1.949585901162877235e+03
1.054442793526168950e-09	1.874237478594182221e+03	1.988038892103527814e+03
1.089022962263730067e-09	1.916294111115861369e+03	2.027752938573558367e+03
1.124737178364752061e-09	1.959729979626503109e+03	2.068769396550991132e+03
1.161622632608501755e-09	2.004590315800617418e+03	2.111130978272058201e+03
1.199717735435884489e-09	2.050921834673355988e+03	2.154881796709330047e+03
1.239062156947916503e-09	2.098772783286925005e+03	2.200067411508488021e+03
1.279696868215940940e-09	2.148192990932342127e+03	2.246734876431576595e+03
1.321664183946605026e-09	2.199233921038870903e+03	2.294932788356155470e+03
1.365007806546013663e-09	2.251948724765136376e+03	2.344711337881353302e+03
1.409772871628966933e-09	2.306392296347765296e+03	2.396122361593545520e+03
1.456005995020649598e-09	2.362621330265156303e+03	2.449219396046057227e+03
1.503755321299737753e-09	2.420694380275929689e+03	2.504057733509129775e+03
1.553070573933460069e-09	2.480671920393523123e+03	2.560694479548186337e+03
1.604003107056820079e-09	2.542616407860430627e+03	2.619188612490353989e+03
1.656605958949914401e-09	2.606592348187672542e+03	2.679601044841192561e+03
1.710933907269014249e-09	2.672666362327208390e+03	2.741994686715547687e+03
1.767043526088946692e-09	2.740907256047260489e+03	2.806434511348620617e+03
1.824993244816152494e-09	2.811386091582770405e+03	2.872987622755438679e+03
1.884843409033795523e-09	2.884176261635627270e+03	2.941723325609214953e+03
1.946656343342262358e-09	2.959353565801703553e+03	3.012713197411343117e+03
2.010496416260498236e-09	3.036996289504294509e+03	3.086031163028180799e+03
2.076430107255774870e-09	3.117185285516171007e+03	3.161753571672267299e+03
2.144526075971667793e-09	3.200004058155105213e+03	3.239959276408093046e+03
2.214855233726359314e-09	3.285538850240589454e+03	3.320729716265262596e+03
2.287490817355702788e-09	3.373878732902261618e+03	3.404149001044524539e+03
2.362508465477946229e-09	3.465115698333574073e+03	3.490303998904992568e+03
2.439986297259550245e-09	3.559344755587306736e+03	3.579284426823774083e+03
2.520004993764092080e-09	3.656664029512648995e+03	3.671182944022183619e+03
2.602647881969005809e-09	3.757174862936922182e+03	3.766095248455865658e+03
2.688001021537606561e-09	3.860981922198293432e+03	3.864120176469259150e+03
2.776153294436799262e-09	3.968193306139434299e+03	3.965359805718225743e+03
2.867196497493770032e-09	4.078920658675588584e+03	4.069919561467988387e+03
2.961225437988034610e-09	4.193279285054258253e+03	4.177908326377073536e+03
3.058338032378433485e-09	4.311388271927638016e+03	4.289438553881613188e+03
3.158635408267817403e-09	4.433370611362746786e+03	4.404626385298020978e+03
3.262222009711669644e-09	4.559353328918478837e+03	4.523591770766058289e+03
3.369205705980266915e-09	4.689467615922870209e+03	4.646458594158151755e+03
3.479697903887691433e-09	4.823848966088396992e+03	4.773354802085123083e+03
3.593813663804627762e-09	4.962637316607510911e+03	4.904412537132591751e+03
3.711671819475765297e-09	5.105977193875370176e+03	5.039768275466845807e+03
3.833395101766601886e-09	5.254017863991526610e+03	5.179562968953466225e+03
3.959110266468459240e-09	5.406913488197241350e+03	5.323942191936669587e+03
4.088948226294862618e-09	5.564823283410366457e+03	5.473056292832276085e+03
4.223044187206674123e-09	5.727911688024878458e+03	5.627060550692086508e+03
4.361537789208003199e-09	5.896348533147815033e+03	5.786115336902787021e+03
4.504573251759458750e-09	6.070309219451833997e+03	5.950386282187695542e+03
4.652299523960189308e-09	6.249974899827628178e+03	6.120044449085295128e+03
4.804870439655131104e-09	6.435532668026384272e+03	6.295266510084161382e+03
4.962444877628916452e-09	6.627175753488695591e+03	6.476234931599771699e+03
5.125186927053329472e-09	6.825103722562862458e+03	6.663138163984781386e+03
5.293266058360561204e-09	7.029522686322083246e+03	6.856170837770646358e+03
5.466857299720180771e-09	7.240645515196934866e+03	7.055533966344913097e+03
5.646141419303669251e-09	7.458692060646711070e+03	7.261435155275300531e+03
5.831305113526221869e-09	7.683889384100362804e+03	7.474088818498450564e+03
6.022541201461928965e-09	7.916471993405546527e+03	7.693716401598589073e+03
6.220048825634711276e-09	8.156682087031898845e+03	7.920546612408500550e+03
6.424033659394191079e-09	8.404769806282954960e+03	8.154815659173042150e+03
6.634708121092347870e-09	8.660993495779237492e+03	8.396767496523139926e+03
6.852291595284060743e-09	8.925619972483829770e+03	8.646654079516427373e+03
7.077010661181889919e-09	9.198924803550611614e+03	8.904735626009127373e+03
7.309099328602911004e-09	9.481192593284378745e+03	9.171280887632279700e+03
7.548799281653435948e-09	9.772717279511824017e+03	9.446567429654633088e+03
7.796360130405233414e-09	1.007380243967185197e+04	9.730881920023501152e+03
8.052039670825474778e-09	1.038476160694409919e+04	1.002452042788469043e+04
8.316104153230961616e-09	1.070591859674478474e+04	1.032778873189227124e+04
8.588828559546249041e-09	1.103760784392987807e+04	1.064100263862929205e+04
8.870496889654407999e-09	1.138017475105681297e+04	1.096448831147104647e+04
9.161402457138517586e-09	1.173397604806727031e+04	1.129858261023326122e+04
9.461848194721997291e-09	1.209938016376576525e+04	1.164363344195903301e+04
9.772146969725725887e-09	1.247676760948067931e+04	1.200000012320967107e+04
1.009262190987047331e-08	1.284812078638933963e+04	1.234549653677852984e+04
1.042360673976401127e-08	1.318487642446952850e+04	1.264501206544664456e+04
1.076544612842315905e-08	1.353267587342276420e+04	1.295435012558300514e+04
1.111849604819270880e-08	1.389188131206596518e+04	1.327383284447385449e+04
1.148312414543511117e-08	1.426286679677330358e+04	1.360379291348346851e+04
1.185971012337669343e-08	1.464601865099743918e+04	1.394457393450021118e+04
1.224864613750930795e-08	1.504173586756510667e+04	1.429653077774426492e+04
1.265033720395903769e-08	1.544721412601311749e+04	1.465629047553890086e+04
1.306520162124721228e-08	1.584746667123969928e+04	1.500631272377180721e+04
1.349367140588306343e-08	1.626084539138686159e+04	1.536781385780117671e+04
1.393619274224142065e-08	1.668778075584225371e+04	1.574117032460944029e+04
1.439322644719406651e-08	1.712871735112168244e+04	1.612677091665688567e+04
1.486524844997857277e-08	1.758411434383656160e+04	1.652501717674832980e+04
1.535275028780422776e-08	1.805444595884421142e+04	1.693632381617718420e+04
1.585623961771137302e-08	1.853981849091453842e+04	1.736068230509955174e+04
1.637624074521687477e-08	1.901421699561148853e+04	1.776832400487823907e+04
1.691329517029648562e-08	1.950417327209274299e+04	1.818933420492016739e+04
1.746796215127245689e-08	2.001019753331319589e+04	1.862415132160760550e+04
1.804081928719382751e-08	2.053281672452485509e+04	1.907322814907057545e+04
1.863246311931559514e-08	2.107257507200800319e+04	1.953703233070120405e+04
1.924350975230330612e-08	2.163003464979787896e+04	2.001604684613130667e+04
1.987459549580983990e-08	2.220577596499703941e+04	2.051077051418023620e+04
2.052637752709252173e-08	2.277041805725493032e+04	2.098831398124989573e+04
2.119953457536071000e-08	2.334936653310461406e+04	2.147682653534453857e+04
2.189476762856620985e-08	2.394730146901467742e+04	2.198135972768975989e+04
2.261280066337277307e-08	2.456484552085288669e+04	2.250243895082215749e+04
2.335438139906479724e-08	2.520264176431929445e+04	2.304060682738573087e+04
2.412028207618007283e-08	2.586135436460907295e+04	2.359642377518858120e+04
2.491130026067788373e-08	2.654166926803698880e+04	2.417046859079063506e+04
2.572825967447932303e-08	2.721262019810755010e+04	2.472888095400557722e+04
2.657201105324503850e-08	2.789443235867411931e+04	2.529348474757562508e+04
2.744343303228365032e-08	2.859860436626557566e+04	2.587660457119624698e+04
2.834343306151309448e-08	2.932586950607080507e+04	2.647884765310911462e+04
2.927294835042816131e-08	3.007698511116994268e+04	2.710084113544335924e+04
3.023294684405776334e-08	3.085273335117844545e+04	2.774323272728608936e+04
3.122442823092858392e-08	3.165392204675465473e+04	2.840669137917031185e+04
3.224842498408442807e-08	3.244907886183432129e+04	2.905765515533213329e+04
3.330600343624588813e-08	3.324906851652019395e+04	2.970744323854488175e+04
3.439826489022924478e-08	3.407529361746942595e+04	3.037854094775072008e+04
3.552634676578139226e-08	3.492861454910899920e+04	3.107164712642139057e+04
3.669142378402493899e-08	3.580991991194254661e+04	3.178748353641295398e+04
3.789470919074667737e-08	3.672012744788893178e+04	3.252679560956799833e+04
3.913745601980383687e-08	3.766018499596729089e+04	3.329035322396660194e+04
4.042095839796305955e-08	3.859981548411976109e+04	3.404671294928489806e+04
4.174655289253134782e-08	3.953464620472613751e+04	3.479114301053351664e+04
4.311561990318228626e-08	4.050013444820442965e+04	3.555998645607320941e+04
4.452958509942655287e-08	4.149728561979845836e+04	3.635404391629699239e+04
4.598992090522439315e-08	4.252713809674760705e+04	3.717414227805706469e+04
4.749814803228499868e-08	4.359076430959434219e+04	3.802113554573822330e+04
4.905583706365045989e-08	4.468927185895336152e+04	3.889590573057014990e+04
5.066461008921269181e-08	4.579612392609106610e+04	3.977163793012746464e+04
5.232614239486661694e-08	4.688361069698524079e+04	4.062033463382678747e+04
5.404216420705915059e-08	4.800676130499630381e+04	4.149686411840444634e+04
5.581446249454960394e-08	4.916674533610168874e+04	4.240213915244787495e+04
5.764488282925879445e-08	5.036477073253748677e+04	4.333710243854571308e+04
5.953533130814369715e-08	5.160208505068144586e+04	4.430272759496515937e+04
6.148777653810024108e-08	5.287997676018842321e+04	4.530002016952358099e+04
6.350425168595962148e-08	5.417931571241046186e+04	4.631015062071721331e+04
6.558685659571428548e-08	5.543808929932667525e+04	4.727264105128719530e+04
6.773775997517751128e-08	5.673814402857250388e+04	4.826669609750231029e+04
6.995920165435375620e-08	5.808083370414388628e+04	4.929335091247070523e+04
7.225349491787214948e-08	5.946755652767596621e+04	5.035367459686929215e+04
7.462302891391107044e-08	6.089975655445166922e+04	5.144877131224502955e+04
7.707027114212294845e-08	6.237892519715979870e+04	5.257978143082684983e+04
7.959777002314985573e-08	6.389846550525197381e+04	5.374023469614378700e+04
8.220815755240541849e-08	6.534746513982171746e+04	5.482560848666298261e+04
8.490415204088747078e-08	6.684398432895781298e+04	5.594657681967409007e+04
8.768856094587425811e-08	6.838958146371319890e+04	5.710430700865593099e+04
9.056428379445295063e-08	6.998586604215764964e+04	5.830000464881996595e+04
9.353431520292386860e-08	7.163450034541849163e+04	5.953491487254924868e+04
9.660174799522647250e-08	7.333720116868714103e+04	6.081032364600971050e+04
9.976977642363202159e-08	7.509574160899307753e+04	6.212755910828288324e+04
1.030416994950587396e-07	7.676465005467936862e+04	6.335417517603188026e+04
1.064209244064724761e-07	7.847677504511094594e+04	6.461055707509506465e+04
1.099109700929497372e-07	8.024504871561541222e+04	6.590814168172579957e+04
1.135154708920999096e-07	8.207131244710340980e+04	6.724828022767315269e+04
1.172381803286598596e-07	8.395746800807885302e+04	6.863236825796909397e+04
1.210829750232039531e-07	8.590547953503392637e+04	7.006184708417083311e+04
1.250538587290391570e-07	8.791737557779060444e+04	7.153820528526171984e+04
1.291549665014884007e-07	8.984078132474063023e+04	7.292749934075586498e+04
1.333905690039058854e-07	9.178625229303340893e+04	7.432638421312494029e+04
1.377650769549053468e-07	9.379552446018741466e+04	7.577114513986880775e+04
1.422830457214352017e-07	9.587069016941548034e+04	7.726328661389222543e+04
1.469491800624817218e-07	9.801391038176513393e+04	7.880436246754143212e+04
1.517683390283405561e-07	1.002274169264219963e+05	8.039597749067780387e+04
1.567455410205594968e-07	1.025135148248117475e+05	8.203978910181610263e+04
1.618859690178197646e-07	1.047180973326011590e+05	8.360511132030903536e+04
1.671949759731990056e-07	1.069120061309369048e+05	8.515156819958212145e+04
1.726780903884356132e-07	1.091778635801686178e+05	8.674874071763514075e+04
1.783410220710008120e-07	1.115180292170144239e+05	8.839829208024599939e+04
1.841896680799711039e-07	1.139349399585665669e+05	9.010194003758025065e+04
1.902301188668944219e-07	1.164311126399599307e+05	9.186145867295954667e+04
1.964686646180446931e-07	1.190091466352630814e+05	9.367868025029254204e+04
2.029118018046678038e-07	1.215208138254513324e+05	9.543238703276542947e+04
2.095662399480432992e-07	1.239740889604740805e+05	9.712877714014619414e+04
2.164389086064020114e-07	1.265078185958733229e+05	9.888079990632843692e+04
2.235369645909794139e-07	1.291246412154205900e+05	1.006902797894435498e+05
2.308677994187169850e-07	1.318272818312554446e+05	1.025591010802382079e+05
2.384390470093720426e-07	1.346185548215597810e+05	1.044892098642688361e+05
2.462585916350547006e-07	1.375013668612937909e+05	1.064826160484461871e+05
2.543345761304648365e-07	1.403439410813588474e+05	1.084353844848778099e+05
2.626754103723835758e-07	1.430615955224611680e+05	1.102806133942620654e+05
2.712897800372467241e-07	1.458683747124079382e+05	1.121863560910587257e+05
2.801866556459195443e-07	1.487672014734445838e+05	1.141545971087032958e+05
2.893753019050950594e-07	1.517610944809889188e+05	1.161873860628733964e+05
2.988652873550382326e-07	1.548531714071096794e+05	1.182868397858432872e+05
3.086664943337274455e-07	1.580466521670954535e+05	1.204551445308343100e+05
3.187891292677645596e-07	1.612402078341940360e+05	1.226151498589121475e+05
3.292437333007768907e-07	1.642194184282388014e+05	1.246038868100450636e+05
3.400411932703706463e-07	1.672963314350453729e+05	1.266578438563477102e+05
3.511927530450727317e-07	1.704741509790481068e+05	1.287791598733568826e+05
3.627100252330649086e-07	1.737561862630833348e+05	1.309700438804593286e+05
3.746050032748993774e-07	1.771458550144069013e+05	1.332327773412401439e+05
3.868900739327976195e-07	1.806466870437241741e+05	1.355697165392712923e+05
3.995780301895269929e-07	1.842055232419985405e+05	1.379416719104829826e+05
4.126820845702951630e-07	1.874336586477847304e+05	1.400635778679050272e+05
4.262158829015325345e-07	1.907676598888018634e+05	1.422550711623580137e+05
4.401935185208874400e-07	1.942109988067355007e+05	1.445184338919046568e+05
4.546295469532399562e-07	1.977672611013888672e+05	1.468560229954021925e+05
4.695390010680058238e-07	2.014401500646288623e+05	1.492702727068855602e+05
4.849374067335232931e-07	2.052334904367863492e+05	1.517636970904424379e+05
5.008407989848212921e-07	2.091512323895262671e+05	1.543388926582183049e+05
5.172657387216018967e-07	2.126165281092842633e+05	1.565867824828035955e+05
