# Frequency (Hz)	Real Part (Ohm)
1000.0	0.0011454630837
1018.6101701559753	0.0011614155836552839
1037.566678745186	0.0011776649623491493
1056.875971184804	0.001194216744745436
1076.5446128423157	0.0012110765586285026
1096.5792912678098	0.0012282501365167308
1116.9868184678226	0.0012457433176116454
1137.7741332214914	0.001263562049783307
1158.9483034398106	0.0012817123915926459
1180.5165285688054	0.0013002005143514465
1202.4861420374123	0.0013190327042206522
1224.8646137509306	0.0013382153643477332
1247.6595526308697	0.0013577550170438247
1270.8787092020582	0.001376982234371733
1294.529978227916	0.0013959182249448435
1318.6214013947485	0.0014152066175245907
1343.1611700460153	0.001434853970372282
1368.1576279674719	0.0014548669637995844
1393.619274224142	0.001475252402439898
1419.5547660501015	0.0014960172175620139
1445.9729217920194	0.001517168469426808
1472.882723907502	0.001538713349687818
1500.2933220192183	0.0015606591838364767
1528.2140360258693	0.0015830134336928554
1556.654359271062	0.001605783699942772
1585.6239617711371	0.001628937655103838
1615.132693503091	0.001650945304255132
1645.1905877536624	0.0016733625195018633
1675.807864530767	0.0016961969229387598
1706.9949340384078	0.0017194562785090282
1738.7624002162504	0.0017431484946441762
1771.1210643450886	0.001767281626952973
1804.0819287193826	0.0017918638809604319
1837.6562003881704	0.0018169036148977867
1871.8552949655793	0.0018424093425443778
1906.690840512252	0.001868389736122422
1942.1746814890264	0.0018948536292456744
1978.3188827841643	0.001921810019922939
2015.1357338155585	0.0019482164561317938
2052.6377527092523	0.0019742010607432118
2090.8376905557498	0.002000669243267884
2129.748535745521	0.002027630003173061
2169.3835183851843	0.002055092507407607
2209.756114795903	0.0020830660935188677
2250.880052095462	0.002111560272827531
2292.7693128656488	0.002140584733661583
2335.438139906479	0.002170149344650444
2378.9010410788933	0.0022002641580804016
2423.1727942376006	0.002230939413312507
2468.2684522556924	0.002262185540264058
2514.2033481427966	0.002293895368776493
2560.9931002584594	0.00232393647634195
2608.6536176225477	0.0023545366540308724
2657.2011053245064	0.002385706306233391
2706.652070033241	0.002417456030967099
2757.0233256095826	0.0024497966234805066
2808.3319988231724	0.0024827390799235355
2860.5955351757416	0.002516294601086323
2913.831704832789	0.0025504745962076254
2968.0586086656026	0.0025852906868540624
3023.2946844057765	0.0026207547108715954
3079.5587129142264	0.0026568787264105126
3136.8698245668766	0.0026936750160253256
3195.2475057592133	0.0027295524880232036
3254.711605531848	0.002764838849243175
3315.282342319423	0.002800781895649635
3376.9803108250912	0.0028373938482656466
3439.8264890229243	0.0028746871555495814
3503.8422452906757	0.0029126744976277516
3569.0493456752292	0.0029513687906057673
3635.4699612933177	0.0029907831909601694
3703.126675869927	0.003030931100011766
3772.0424934169973	0.0030718261684822157
3842.240846055061	0.0031134823011354433
3913.745601980384	0.0031559136615053863
3986.581073580439	0.0031988793755740445
4060.7720257003657	0.0032394667698163217
4136.343684063274	0.003280809502371633
4213.321743847289	0.003322921630214513
4291.732378422157	0.003365817471922178
4371.602248248501	0.003409511612543006
4452.958509942655	0.0034540189085556093
4535.828825510186	0.003499354492920188
4620.241371751313	0.003545533780223913
4706.224849841281	0.00359257247192204
4793.808495089106	0.0036404865616765842
4883.02208687788	0.003689292340794332
4973.895958790063	0.0037390064037660523
5066.461008921268	0.003787245191568573
5160.7487103859075	0.0038346806735655636
5256.791122018419	0.0038829989379539497
5354.620899273607	0.003932216413464247
5454.271305329836	0.00398234983456844
5555.7762223988775	0.004033416247169879
5659.170163246242	0.0040854330143990855
5764.488282925873	0.004138417822517393
5871.766390733255	0.004192388686930466
5981.040962380945	0.004247363958313732
6092.349152400711	0.004303362328851807
6205.7288067765	0.004360402838594054
6321.218475812449	0.004418020817313587
6438.8574272404185	0.004472314095581936
6558.685659571435	0.0045276177809971865
6680.743915695614	0.004583950677408262
6805.073696735206	0.004641331938606927
6931.717276155407	0.004699781074840266
7060.717714137772	0.004759317959444375
7192.118872221193	0.004819962835601529
7325.96542821523	0.004881736323223048
7462.302891391108	0.0049446594259603335
7601.17761795533	0.005008753538346306
7742.636826811269	0.005074040453069772
7886.728615614156	0.005140542368385207
8033.501977124735	0.005204749959550979
8183.00681586739	0.005267897285456636
8335.293965098195	0.005332219793842296
8490.415204088747	0.005397739355053868
8648.423275731726	0.0054644782464481345
8809.37190447399	0.005532459159967266
8973.31581458352	0.005601705209854349
9140.310748756232	0.005672239940512462
9310.413487069076	0.005744087334510026
9483.681866285926	0.005817271820735151
9660.174799522645	0.005891818282701699
9839.952296278227	0.005967752067009972
10023.075482838643	0.006044251313808015
10209.606623060476	0.006116185454378925
10399.609139541202	0.006189458301545876
10593.1476351837	0.006264094768866418
10790.287915161836	0.006340120233543636
10991.097009294961	0.006417560545054682
11195.643194838794	0.0064964420339398915
11403.99601970033	0.006576791520755401
11616.22632608502	0.006658636325192493
11832.40627458378	0.006742004275366543
12052.609368708414	0.006826923717278885
12276.910479883603	0.006913423524454776
12505.385872903913	0.007001533107760662
12738.113231864783	0.0070861694820885945
12975.171686575868	0.007169446677709563
13216.641839466038	0.007254273676111152
13462.60579298911	0.007340679319386822
13713.147177539455	0.00742869298638628
13968.351179887397	0.00751834460270465
14228.30457214352	0.007609664650857463
14493.09574126215	0.007702684180645051
14762.81471909391	0.007797434819709827
15037.553212997384	0.007893948784289973
15317.404637020798	0.007992258890173385
15602.46414366368	0.008092398563855338
15892.828656229764	0.008192997073949817
16188.596901781993	0.008287433514401218
16489.86944471065	0.00838362743307833
16796.74872092653	0.008481611536949993
17109.339072690134	0.008581419141667285
17427.746784089173	0.00868308418289123
17752.08011717636	0.00878664122783128
18082.44934877952	0.008892125486998501
18418.96680799711	0.008999572826177601
18761.746914391195	0.00910901977862163
19110.90621689136	0.009220503557473695
19466.56343342263	0.009334062068419842
19828.83949127071	0.009449733922577341
20197.857568198782	0.009560272037318593
20573.743134329114	0.009669120978052814
20956.623994804308	0.009779995616095398
21346.630333242454	0.009892933650017947
21743.8947560008	0.010007973479968861
22148.55233726359	0.010125154220729881
22560.74066496859	0.010244515715015468
22980.599887588487	0.010366098547019777
23408.272761782944	0.010489944056215747
23843.904700937208	0.010616094351410895
24287.643824604504	0.010744592325064846
24739.64100886812	0.010875481667873202
25200.049937640895	0.011006575104666077
25669.027154919517	0.011129489423818783
26146.732118010917	0.011254691199365513
26633.327251749808	0.011382223001258997
27128.978003724646	0.01151212819168602
27633.852900531667	0.01164445093981103
28148.123605075813	0.011779236236794171
28671.964974937695	0.011916529911088677
29205.55512182745	0.012056378644023142
29749.075472144435	0.012198829985673633
30302.71082866393	0.01234393237103115
30866.649433372742	0.012491735136470243
31441.08303147265	0.012642288536523667
32026.206936576502	0.0127854185407938
32622.220097116733	0.012926521367363879
33229.325163989684	0.013070250141545881
33847.72855945983	0.013216653732671757
34477.640547344636	0.01336578191953991
35119.275304507275	0.013517685407340736
35772.850993678774	0.013672415844896833
36438.58983763541	0.013830025842224128
37116.71819475767	0.013990568988420006
37807.466635993485	0.014154099869883937
38511.070023255685	0.014320674088877671
39227.76758927723	0.0144903482824305
39957.803018952654	0.014659754716382482
40701.42453219439	0.014818485101469108
41458.88496832911	0.0149801694860311
42230.441872066716	0.015144862844501361
43016.35758106799	0.015312621174396326
43816.89931514194	0.015483501515355701
44632.33926710397	0.015657561968536644
45462.95469532399	0.015834861716368706
46309.02801799736	0.016015461042676538
47170.84690917023	0.016199421353177035
48048.704396551344	0.016386805196357865
48942.89896114532	0.016577676284744776
49853.73463873894	0.016772099516564425
50781.5211232767	0.016956005979147995
51726.57387216024	0.01713757857392666
52689.21421350677	0.0173225302655898
53669.76945540476	0.017510923939705415
54668.57299720181	0.017702823652152637
55685.96444286408	0.01789829465090138
56722.28971644549	0.01809740339819742
57777.90117970507	0.018300217593160164
58853.1577519145	0.01850680619480121
59948.42503189408	0.01871723944547108
61064.07542232036	0.018931588894742394
62200.48825634718	0.019149927423737504
63358.04992658254	0.019367223233863654
64537.15401646702	0.019570812466007243
65738.20143409586	0.019778190528402954
66961.60054853215	0.019989427931826464
68207.76732865692	0.02020459649927102
69477.1254846024	0.020423769390367906
70770.10661181889	0.020647021126261676
72087.15033782135	0.020874427614948062
73428.70447166759	0.021106066177083462
74795.22515621828	0.021342015572274917
76187.17702322999	0.021582356025859065
77605.0333513357	0.021827169256179772
79049.2762269642	0.022076538502373177
80520.39670825469	0.022311286963773647
82018.8949920221	0.022543484860184235
83545.28058382872	0.022780003998956858
85100.07247122246	0.02302092479914718
86683.79930019773	0.02326632917642316
88296.99955494082	0.02351630057091726
89940.22174092053	0.023770923975597068
91614.0245713852	0.024030285965163614
93318.9771573324	0.024294474725487996
95055.65920101192	0.024563580083595302
96824.66119303115	0.024837693538206883
98626.5846131283	0.025116908290850844
100462.04213468132	0.025393896041112016
102331.65783302448	0.025653562445711507
104236.06739764012	0.025918061286284384
106175.9183482999	0.026187482495286376
108151.87025522892	0.02646191767883156
110164.59496336569	0.026741460147839274
112214.77682079801	0.027026204949761042
114303.11291144785	0.0273162489008976
116430.31329208757	0.027611690619317526
118597.10123376705	0.027912630558388458
120804.21346773289	0.028219171040932193
123052.40043592616	0.028531416294015757
125342.42654613995	0.02884947248438961
127675.07043192645	0.029147540376989925
130051.12521734099	0.02944301117543135
132471.39878661174	0.029743980735707862
134936.71405883064	0.03005055139071289
137447.90926775365	0.030362827377772395
140005.8382468096	0.0306809148740867
142611.37071941295	0.03100492203283193
145265.39259467812	0.03133495901993314
147968.80626863963	0.03167113805152206
150722.53093107554	0.03201357343209172
153527.5028780421	0.03236238159336121
156384.67583022476	0.03271768113386375
159295.0212572123	0.0330690261202085
162259.5287078087	0.03339879373859452
165279.2061464897	0.03373469838847068
168355.08029612005	0.034076854281037135
171488.19698705408	0.03442537775298421
174679.62151272455	0.03478038730604752
177930.43899185772	0.035142003647300336
181241.75473742394	0.03551034973019508
184614.69463245454	0.035885550796368716
188050.40551285836	0.03626773441822663
191550.0555573528	0.03665703054231811
195114.83468466165	0.03705357153351998
198745.9549580986	0.03745749222004198
202444.65099768018	0.037834469730415606
206212.18039991445	0.038209078026771474
210049.8241653915	0.03859065784726433
213958.88713434213	0.03897933893314464
217940.6984302958	0.03937525344016965
221996.61191199525	0.03977853598353751
226128.00663372793	0.04018932368365847
230336.2873142131	0.040607756212776625
234622.88481422624	0.04103397584246047
238989.25662310526	0.04146812749197659
243436.8873543108	0.0419103587775636
247967.289250216	0.04236082006262379
252582.00269627848	0.04280488069630106
257282.59674479323	0.04322239011495016
262070.66964838552	0.04364766945492207
266947.8494034318	0.04408086331577461
271915.7943036019	0.044522118988088215
276976.1935036891	0.04497158650354583
282130.76759394706	0.04542941868594569
287381.2691851069	0.04589577120316295
292729.4835042813	0.046370802620078186
298177.22900196735	0.04685467445249175
303726.3579703311	0.04734755122204015
309378.75717301364	0.047849600512135784
315136.34848664823	0.04836099302494684
321001.08955431683	0.048836469518563436
326974.97445117676	0.049310213128112096
333060.03436245886	0.04979277318684474
339258.33827409917	0.05028431377038085
345571.9936762143	0.05078500200781521
352003.1472796675	0.05129500813854319
358553.9857459817	0.05181450557014472
365226.7364308175	0.052343670937343906
372023.6681413066	0.0528826841620673
378947.09190746717	0.05343172851461919
385999.36176797637	0.053990990675995124
393182.87557057705	0.05456066080135619
400500.07578736113	0.055120529207919586
407953.45034524484	0.05564804789596043
415545.53347188793	0.056185383796546265
423278.90655735444	0.056732719609672765
431156.19903182285	0.05729024143541415
439180.0892596086	0.05785813883719817
447353.3054498463	0.058436604906260535
455678.6265841068	0.05902583632729769
464158.8833612772	0.05962603344534144
472796.9591600391	0.06023740033387926
481595.79101923504	0.06086014486424041
490558.37063650455	0.06149447877627531
499687.7453854889	0.06214061775034894
508987.0193519675	0.06273927118531113
518459.3543892913	0.0633374120483965
528107.971193433	0.0639466844147211
537936.1503980698	0.06456729544345428
547947.2336900292	0.06519945614903296
558144.6249454955	0.06584338147290823
568531.7913873753	0.06649929035662873
579112.2647641759	0.06716740581628199
589889.6425508494	0.06784795501832323
600867.5891719692	0.06854116935681405
612049.837247669	0.0692472845320986
623440.1888627863	0.06996654063094507
635042.5168595961	0.07067131719924305
646860.7661546321	0.07133698095267538
658898.9550799957	0.07201503282182584
671161.1767496272	0.07270570335163559
683651.6004510238	0.07340922737752698
696374.4730628222	0.07412584410524897
709334.1204987989	0.07485579719221046
722534.9491787221	0.07559933483032627
735981.4475265755	0.07635670983040461
749678.1874966878	0.0771281797081065
763629.8261282243	0.0779140067715025
777841.1071286482	0.07871445821026149
792316.8624866261	0.07952980618649744
807062.0141149492	0.08028273254894679
822081.575524054	0.08103718627177965
837380.6535266489	0.08180568050676916
852964.4499741016	0.08258847655023571
868838.2635251193	0.08338584056126869
885007.4914473438	0.08419804365222314
901477.6314524917	0.08502536198090148
918254.2835656281	0.08586807684444966
935343.1520292377	0.08672647477500145
952750.0472427299	0.08760084763710248
970480.8877380306	0.08849149272694683
988541.7021919573	0.08939871287346178
1006938.6314760271	0.0902850643790657
1025677.9307444209	0.09112440776219417
1044765.9715608053	0.09197937146850206
1064209.2440647245	0.09285024619486142
1084014.359178331	0.09373732804806287
1104188.0508541602	0.0946409186454947
1124737.1783647507	0.09556132521769603
1145668.7286348727	0.09649886071281884
1166989.8186171474	0.09745384390303304
1188707.6977119034	0.09842659949291323
1210829.7502320393	0.09941745822984124
1233363.4979137746	0.10042675701646402
1256316.6024741214	0.10145483902524421
1279696.8682159416	0.1024011888468691
1303512.2446815087	0.10335224642756574
1327770.829355429	0.10432100335166726
1352480.8704178738	0.1053077890069661
1377650.769549055	0.10631293891121764
1403289.084785873	0.10733679482621944
1429404.533431761	0.10837970487401463
1456005.9950206485	0.10944202365525667
1483102.514336103	0.1105241123697775
1510703.3044866556	0.11162633893939954
1538817.7500383465	0.11274907813303259
1567455.410205595	0.11389271169409991
1596626.022101425	0.11500679606992009
1626339.5040481905	0.11606465872478298
1656605.9589499151	0.11714220838365466
1687435.6777273756	0.11823981142502935
1718839.1428171454	0.1193578410457677
1750827.0317357269	0.12049667738798757
1783410.220710006	0.12165670766831567
1816599.7883753285	0.12283832630954705
1850407.019542302	0.12404193507475109
1884843.4090337954	0.1252679432038768
1919920.6655932867	0.12651676755289826
1955650.715865947	0.1277888327355497
1992045.7084538713	0.1290845712677
2029118.0180466783	0.13027358780221934
2066880.2496290822	0.13147207019417292
2105345.242766708	0.13269285654736984
2144526.0759716653	0.1339363619423236
2184436.0711494284	0.1352030091842676
2225088.7981283693	0.13649322894691163
2266498.079273693	0.13780745991887705
2308677.994187172	0.13914614895285518
2351642.884494346	0.14050975121754122
2395407.358720879	0.1418987303523985
2439986.29725955	0.1433135586252984
2485394.857429798	0.14475471709309845
2531648.478631358	0.1461545870309097
2578762.8875937983	0.1474875080059873
2626754.1037238385	0.1488452348672159
2675638.4445520453	0.15022822925635715
2725432.531281028	0.1516369614064051
2776153.2944368036	0.15307191030146972
2827817.979625338	0.15453356383963632
2880444.1533962977	0.15602241899885766
2934049.709215787	0.1575389820059295
2988652.873550383	0.15908376850861522
3044272.2120643063	0.1606573037509708
3100926.6359319235	0.16226012275193263
3158635.408267819	0.16389277048723194
3217418.1506763715	0.16538634681162387
3277294.849923382	0.16689631733477603
3338285.8647317644	0.16843438866629476
3400411.9327037027	0.17000108376700468
3463694.1773717343	0.17159693533012177
3528154.1153808828	0.17322248596237194
3593813.6638046256	0.17487828836848543
3660695.147596906	0.17656490553912152
3728821.30718283	0.17828291094229082
3798215.306190736	0.18003288871834236
3868900.7393279755	0.1818154338785752
3940901.6404034477	0.18363115250755066
4014242.490499326	0.1853897740360552
4088948.226294856	0.1870690094796658
4165044.248545185	0.1887794957806143
4242556.430717777	0.1905218145226727
4321511.127789762	0.19229655811298674
4401935.1852088785	0.19410432998349994
4483855.948021181	0.19594574479612623
4567301.270168747	0.1978214286517436
4652299.523960189	0.1997320193030726
4738879.609717651	0.20167816637152128
4827070.965603188	0.20366053156806263
4916903.577628021	0.20567978891822233
5008407.989848212	0.20773662499125772
5101615.314749833	0.2096125189290028
5196557.243827657	0.21151470351971083
5293266.058360566	0.2134522880893202
5391774.640387494	0.2154259314374612
5492116.483887789	0.21743630462413877
5594325.706169377	0.2194840911978971
5698437.0594691355	0.22156998742823625
5804485.942768984	0.22369470254234997
5912508.413831869	0.2258589589662698
6022541.201461928	0.2280634925705005
6134621.717992506	0.23030905292022016
6248788.072006888	0.23259640353014363
6365079.081295578	0.2348054520945401
6483534.286054714	0.23692078079917395
6604193.962330305	0.23907547613093727
6727099.135712336	0.2412702707094588
6852291.595284057	0.243505910788544
6979813.907830667	0.2457831565099088
7109709.432312423	0.2481027821616346
7242022.334607315	0.2504655764414378
7376797.60252773	0.2528723427248313
7514081.061116962	0.2553238993382845
7653919.388230155	0.25782107983746133
7796360.130405221	0.2603647332906375
7941451.71902934	0.2629557245673956
8089243.486805938	0.2653116009182867
8239785.684528512	0.26770770085182427
8393129.498166373	0.270148392612836
8549327.066268368	0.27263450606281786
8708431.497690724	0.2751668865071315
8870496.889654402	0.2777463949824132
9035578.34613892	0.2803739085493387
9203731.99661823	0.28305032059083207
9375015.01514529	0.28577654111582484
9549485.639791967	0.2885534970686705
9727203.192450536	0.29138213264431423
9908228.099003786	0.29426340960932995
10092621.909870483	0.297038043136148
10280447.320933098	0.29970256417189634
10471768.194855202	0.3024166723975042
10666649.582795387	0.3051812906390123
10865157.746525371	0.30799735889641117
11067360.180959744	0.3108658346632514
11273325.63710487	0.3137876932522006
11483124.14543511	0.31676392812666165
11696827.039703846	0.31979555123856074
11914506.981197748	0.32288359337242095
12136237.983442418	0.32602910449584155
12362095.437367693	0.3292331541164961
12592156.13694151	0.33249235579182457
12826498.3052806	0.33545534156682316
