# Frequency (Hz)	Imaginary Part (Ohm)
1000.0	0.0020842802044
1018.6101701559753	0.002108357270200333
1037.566678745186	0.0021328824142920677
1056.875971184804	0.002157863975488448
1076.5446128423157	0.0021833104477894565
1096.5792912678098	0.0022092304832698547
1116.9868184678226	0.002235632895020992
1137.7741332214914	0.0022625266601473473
1158.9483034398106	0.002289920922818838
1180.5165285688054	0.002317824997379943
1202.4861420374123	0.002346248371516675
1224.8646137509306	0.0023752007094824975
1247.6595526308697	0.00240469185538428
1270.8787092020582	0.002433321943711204
1294.529978227916	0.002461131304505852
1318.6214013947485	0.0024894582022368162
1343.1611700460153	0.0025183122683545434
1368.1576279674719	0.002547703313552416
1393.619274224142	0.0025776413311024812
1419.5547660501015	0.0026081365002532876
1445.9729217920194	0.002639199189690923
1472.882723907502	0.002670839961064496
1500.2933220192183	0.002703069572577199
1528.2140360258693	0.002735898982644213
1556.654359271062	0.0027693393536186955
1585.6239617711371	0.0028033221518796183
1615.132693503091	0.0028347922364927876
1645.1905877536624	0.002866847984735429
1675.807864530767	0.002899500295907343
1706.9949340384078	0.0029327602721461545
1738.7624002162504	0.002966639222202152
1771.1210643450886	0.003001148665283399
1804.0819287193826	0.003036300334972374
1837.6562003881704	0.0030721061832155276
1871.8552949655793	0.003108578384387068
1906.690840512252	0.0031457293394283707
1942.1746814890264	0.0031835716800644514
1978.3188827841643	0.003222118273098868
2015.1357338155585	0.0032593738341942353
2052.6377527092523	0.0032955785739195017
2090.8376905557498	0.003332457090011508
2129.748535745521	0.003370021921563089
2169.3835183851843	0.0034082858410217224
2209.756114795903	0.0034472618585323187
2250.880052095462	0.0034869632263607874
2292.7693128656488	0.0035274034433999684
2335.438139906479	0.0035685962597593944
2378.9010410788933	0.0036105556814404727
2423.1727942376006	0.0036532959750986845
2468.2684522556924	0.003696831672894388
2514.2033481427966	0.003740961797374109
2560.9931002584594	0.003781775346598384
2608.6536176225477	0.003823348442918389
2657.2011053245064	0.0038656952216348235
2706.652070033241	0.003908830081108726
2757.0233256095826	0.00395276768765709
2808.3319988231724	0.003997522980539569
2860.5955351757416	0.00404311117703797
2913.831704832789	0.0040895477776303115
2968.0586086656026	0.004136848571261139
3023.2946844057765	0.0041850296407099485
3079.5587129142264	0.0042341073680595
3136.8698245668766	0.004284098440265895
3195.2475057592133	0.004332198165528505
3254.711605531848	0.004378978064332891
3315.282342319423	0.004426628545013905
3376.9803108250912	0.004475165809248409
3439.8264890229243	0.004524606360229222
3503.8422452906757	0.0045749670082763936
3569.0493456752292	0.004626264876552886
3635.4699612933177	0.004678517406886645
3703.126675869927	0.004731742365700995
3772.0424934169973	0.004785957850055425
3842.240846055061	0.004841182293798781
3913.745601980384	0.004897434473836967
3986.581073580439	0.004954301420732052
4060.7720257003657	0.005006848060455319
4136.343684063274	0.005060372602084959
4213.321743847289	0.005114893244541848
4291.732378422157	0.005170428525431871
4371.602248248501	0.005226997327348918
4452.958509942655	0.005284618884295163
4535.828825510186	0.0053433127882208265
4620.241371751313	0.00540309899568567
4706.224849841281	0.005463997834644411
4793.808495089106	0.005526030011358472
4883.02208687788	0.005589216617436336
4973.895958790063	0.00565357913700488
5066.461008921268	0.005715226653736204
5160.7487103859075	0.0057752487164734224
5256.791122018419	0.00583638780001129
5354.620899273607	0.005898664692296984
5454.271305329836	0.005962100568144897
5555.7762223988775	0.006026716996436333
5659.170163246242	0.006092535947453142
5764.488282925873	0.006159579800347864
5871.766390733255	0.006227871350752869
5981.040962380945	0.006297433818531129
6092.349152400711	0.006368290855671209
6205.7288067765	0.006440466554329211
6321.218475812449	0.0065132246510698055
6438.8574272404185	0.006580426057260444
6558.685659571435	0.006648878093055014
6680.743915695614	0.0067186040328832365
6805.073696735206	0.006789627584315951
6931.717276155407	0.0068619728961259105
7060.717714137772	0.006935664566498639
7192.118872221193	0.007010727651396086
7325.96542821523	0.0070871876730759014
7462.302891391108	0.00716507062876931
7601.17761795533	0.007244402999520425
7742.636826811269	0.007325211759190093
7886.728615614156	0.00740752438362731
8033.501977124735	0.007486010423266021
8183.00681586739	0.007562535681563078
8335.293965098195	0.007640485087938281
8490.415204088747	0.007719885146029677
8648.423275731726	0.007800762852712552
8809.37190447399	0.007883145707278617
8973.31581458352	0.007967061720786092
9140.310748756232	0.008052539425583755
9310.413487069076	0.00813960788501224
9483.681866285926	0.008228296703285915
9660.174799522645	0.00831863603555859
9839.952296278227	0.008410656598176637
10023.075482838643	0.008503146975060091
10209.606623060476	0.008588579020736453
10399.609139541202	0.008675600971319615
10593.1476351837	0.008764242415210436
10790.287915161836	0.008854533491454935
10991.097009294961	0.00894650489999191
11195.643194838794	0.009040187912091255
11403.99601970033	0.009135614380986479
11616.22632608502	0.009232816752705231
11832.40627458378	0.00933182807710123
12052.609368708414	0.00943268201909161
12276.910479883603	0.00953541287010334
12505.385872903913	0.00964005555973266
12738.113231864783	0.009739395201921217
12975.171686575868	0.009836422589237658
13216.641839466038	0.00993525567274185
13462.60579298911	0.010035928056747108
13713.147177539455	0.010138473970948698
13968.351179887397	0.010242928282062379
14228.30457214352	0.010349326505679412
14493.09574126215	0.010457704818342252
14762.81471909391	0.010568100069844976
15037.553212997384	0.010680549795762566
15317.404637020798	0.010795092230213472
15602.46414366368	0.010911766318859595
15892.828656229764	0.011028682813658078
16188.596901781993	0.011136743263364054
16489.86944471065	0.011246814736426178
16796.74872092653	0.011358934658331305
17109.339072690134	0.011473141151060962
17427.746784089173	0.011589473046053237
17752.08011717636	0.011707969897405895
18082.44934877952	0.011828671995325162
18418.96680799711	0.01195162037982489
18761.746914391195	0.012076856854680558
19110.90621689136	0.012204424001643026
19466.56343342263	0.012334365194916793
19828.83949127071	0.012466724615907638
20197.857568198782	0.012591848754084168
20573.743134329114	0.012714314985043313
20956.623994804308	0.012839060333398971
21346.630333242454	0.012966127213913707
21743.8947560008	0.013095558830695997
22148.55233726359	0.013227399191890168
22560.74066496859	0.013361693124639591
22980.599887588487	0.013498486290328392
23408.272761782944	0.013637825200106852
23843.904700937208	0.013779757230705627
24287.643824604504	0.01392433064054442
24739.64100886812	0.014071594586140348
25200.049937640895	0.014218716157624023
25669.027154919517	0.014354858482033482
26146.732118010917	0.014493534438265617
26633.327251749808	0.014634791177639777
27128.978003724646	0.014778676728969365
27633.852900531667	0.014925240014892182
28148.123605075813	0.015074530868504661
28671.964974937695	0.015226600050305582
29205.55512182745	0.015381499265455296
29749.075472144435	0.015539281181355993
30302.71082866393	0.0156999994455591
30866.649433372742	0.01586370870400624
31441.08303147265	0.016030464619609167
32026.206936576502	0.016187487940553236
32622.220097116733	0.016341544960103878
33229.325163989684	0.016498469007002046
33847.72855945983	0.01665831343711459
34477.640547344636	0.01682113259926999
35119.275304507275	0.01698698185373776
35772.850993678774	0.017155917591051433
36438.58983763541	0.017327997251181906
37116.71819475767	0.01750327934306782
37807.466635993485	0.01768182346450901
38511.070023255685	0.017863690322430566
39227.76758927723	0.018048941753523805
39957.803018952654	0.018233456063083367
40701.42453219439	0.01840451029926563
41458.88496832911	0.01857874788388912
42230.441872066716	0.018756228059610018
43016.35758106799	0.018937011171600425
43816.89931514194	0.019121158688066277
44632.33926710397	0.019308733221147355
45462.95469532399	0.019499798548206004
46309.02801799736	0.01969441963351212
47170.84690917023	0.019892662650331742
48048.704396551344	0.020094595003426596
48942.89896114532	0.020300285351972532
49853.73463873894	0.02050980363290436
50781.5211232767	0.020706389198968764
51726.57387216024	0.02089977857517645
52689.21421350677	0.021096766960581693
53669.76945540476	0.02129742133335809
54668.57299720181	0.02150180991815439
55685.96444286408	0.021710002209291687
56722.28971644549	0.02192206899439224
57777.90117970507	0.022138082378447912
58853.1577519145	0.02235811580833684
59948.42503189408	0.022582244097795995
61064.07542232036	0.022810543452858753
62200.48825634718	0.023043091497765757
63358.04992658254	0.02327403022205887
64537.15401646702	0.02348862724832028
65738.20143409586	0.023707217961755372
66961.60054853215	0.023929876685562016
68207.76732865692	0.024156679126105432
69477.1254846024	0.024387702398659134
70770.10661181889	0.024623025053625052
72087.15033782135	0.024862727103241434
73428.70447166759	0.025106890048787918
74795.22515621828	0.025355596908296828
76187.17702322999	0.025608932244780128
77605.0333513357	0.02586698219498191
79049.2762269642	0.026129834498665683
80520.39670825469	0.026375667664357533
82018.8949920221	0.026618204863349742
83545.28058382872	0.026865255720884336
85100.07247122246	0.027116904236914825
86683.79930019773	0.027373235974648136
88296.99955494082	0.027634338089637042
89940.22174092053	0.02790029935941401
91614.0245713852	0.028171210213676388
93318.9771573324	0.028447162765033698
95055.65920101192	0.028728250840326736
96824.66119303115	0.0290145700125298
98626.5846131283	0.029306217633246506
100462.04213468132	0.02959501506902535
102331.65783302448	0.029864123494732102
104236.06739764012	0.030138240074031663
106175.9183482999	0.030417458009514568
108151.87025522892	0.030701872238287443
110164.59496336569	0.030991579464252517
112214.77682079801	0.03128667819098822
114303.11291144785	0.031587268755241295
116430.31329208757	0.03189345336104239
118597.10123376705	0.032205336114456626
120804.21346773289	0.032523023058980575
123052.40043592616	0.03284662221159845
125342.42654613995	0.03317624359950888
127675.07043192645	0.03348361967822057
130051.12521734099	0.03378779472102922
132471.39878661174	0.03409763051314169
134936.71405883064	0.0344132324020658
137447.90926775365	0.03473470769584434
140005.8382468096	0.03506216569954103
142611.37071941295	0.035395717752405485
145265.39259467812	0.035735477265729586
147968.80626863963	0.036081559761408775
150722.53093107554	0.03643408291122054
153527.5028780421	0.036793166576834235
156384.67583022476	0.03715893285056527
159295.0212572123	0.03752011140302038
162259.5287078087	0.03785769257138526
165279.2061464897	0.03820155618273491
168355.08029612005	0.038551819154402145
171488.19698705408	0.03890860057957151
174679.62151272455	0.03927202176777174
177930.43899185772	0.03964220628612267
181241.75473742394	0.04001928000134926
184614.69463245454	0.040403371122577456
188050.40551285836	0.04079461024492722
191550.0555573528	0.04119313039391555
195114.83468466165	0.04159906707068711
198745.9549580986	0.042012558298086006
202444.65099768018	0.042397087330686825
206212.18039991445	0.04277878932259014
210049.8241653915	0.04316759485351161
213958.88713434213	0.043563636121521115
217940.6984302958	0.04396704778491711
221996.61191199525	0.04437796700801172
226128.00663372793	0.04479653350776857
230336.2873142131	0.04522288960130744
234622.88481422624	0.04565718025429411
238989.25662310526	0.04609955313023005
243436.8873543108	0.04655015864065946
247967.289250216	0.04700914999631128
252582.00269627848	0.04746113884954842
257282.59674479323	0.04788493285898465
262070.66964838552	0.04831661374704762
266947.8494034318	0.04875632828989043
271915.7943036019	0.04920422599519569
276976.1935036891	0.04966045915300911
282130.76759394706	0.05012518288752023
287381.2691851069	0.050598555209806176
292729.4835042813	0.0510807370715569
298177.22900196735	0.05157189241980103
303726.3579703311	0.05207218825264893
309378.75717301364	0.05258179467607446
315136.34848664823	0.053100884961752595
321001.08955431683	0.053582330368085955
326974.97445117676	0.054061717948182
333060.03436245886	0.05455002701271423
339258.33827409917	0.05504742359202613
345571.9936762143	0.055554076806314065
352003.1472796675	0.056070158923129845
358553.9857459817	0.05659584541595416
365226.7364308175	0.05713131502385856
372023.6681413066	0.05767674981227943
378947.09190746717	0.058232335234921835
385999.36176797637	0.0587982601968157
393182.87557057705	0.05937471711854605
400500.07578736113	0.059940829540419384
407953.45034524484	0.060473305930503804
415545.53347188793	0.0610156917968118
423278.90655735444	0.06156817155638186
431156.19903182285	0.06213093305828536
439180.0892596086	0.06270416764749648
447353.3054498463	0.06328807022995209
455678.6265841068	0.06388283933882177
464158.8833612772	0.06448867720201094
472796.9591600391	0.0651057898109211
481595.79101923504	0.06573438699048839
490558.37063650455	0.06637468247052704
499687.7453854889	0.06702689395839936
508987.0193519675	0.06763018786872524
518459.3543892913	0.0682327530077252
528107.971193433	0.06884653198649196
537936.1503980698	0.06947173349649172
547947.2336900292	0.07010857011297442
558144.6249454955	0.07075725836725126
568531.7913873753	0.07141801882031855
579112.2647641759	0.07209107613784968
589889.6425508494	0.07277665916658478
600867.5891719692	0.07347500101214076
612049.837247669	0.07418633911826944
623440.1888627863	0.07491091534759176
635042.5168595961	0.07562054056411634
646860.7661546321	0.07629007389957838
658898.9550799957	0.07697206736433852
671161.1767496272	0.07766675284352298
683651.6004510238	0.0783743665376801
696374.4730628222	0.07909514904309009
709334.1204987989	0.07982934543357123
722534.9491787221	0.0805772053438072
735981.4475265755	0.08133898305422532
749678.1874966878	0.08211493757745553
763629.8261282243	0.08290533274639629
777841.1071286482	0.08371043730392144
792316.8624866261	0.08453052499425562
807062.0141149492	0.08528703003303476
822081.575524054	0.08604492803444935
837380.6535266489	0.08681693064663107
852964.4499741016	0.08760330035878636
868838.2635251193	0.08840430454509045
885007.4914473438	0.08922021555559718
901477.6314524917	0.09005131080884163
918254.2835656281	0.09089787288616473
935343.1520292377	0.09176018962779445
952750.0472427299	0.0926385542307143
970480.8877380306	0.09353326534835342
988541.7021919573	0.09444462719213224
1006938.6314760271	0.09533472035553452
1025677.9307444209	0.09617707246599634
1044765.9715608053	0.09703510089256522
1064209.2440647245	0.0979090973741511
1084014.359178331	0.09879935907897504
1104188.0508541602	0.09970618870560907
1124737.1783647507	0.10062989458589724
1145668.7286348727	0.10157079078979181
1166989.8186171474	0.10252919723213982
1188707.6977119034	0.10350543978145853
1210829.7502320393	0.10449985037073353
1233363.4979137746	0.10551276711027985
1256316.6024741214	0.10654453440270308
1279696.8682159416	0.10749363840869357
1303512.2446815087	0.10844737353700577
1327770.829355429	0.1094188578383396
1352480.8704178738	0.11040842162782508
1377650.769549055	0.11141640136781324
1403289.084785873	0.11244313978227621
1429404.533431761	0.11348898597333802
1456005.9950206485	0.11455429553997247
1483102.514336103	0.11563943069891079
1510703.3044866556	0.11674476040779928
1538817.7500383465	0.11787066049064854
1567455.410205595	0.11901751376561821
1596626.022101425	0.12013448275516277
1626339.5040481905	0.12119468568789497
1656605.9589499151	0.12227461917760529
1687435.6777273756	0.12337465041331616
1718839.1428171454	0.12449515341750049
1750827.0317357269	0.12563650917325309
1783410.220710006	0.1267991057538285
1816599.7883753285	0.1279833384545914
1850407.019542302	0.12918960992741965
1884843.4090337954	0.13041833031761157
1919920.6655932867	0.13166991740333917
1955650.715865947	0.13294479673769694
1992045.7084538713	0.1342434017933957
2029118.0180466783	0.13543454087419263
2066880.2496290822	0.13663510815055302
2105345.242766708	0.13785801818821036
2144526.0759716653	0.1391036867897537
2184436.0711494284	0.14037253749592993
2225088.7981283693	0.14166500172965055
2266498.079273693	0.1429815189426812
2308677.994187172	0.1443225367650598
2351642.884494346	0.14568851115729473
2395407.358720879	0.14707990656539816
2439986.29725955	0.1484971960788005
2485394.857429798	0.1499408615912075
2531648.478631358	0.15134295953802063
2578762.8875937983	0.15267770526123206
2626754.1037238385	0.15403729082946763
2675638.4445520453	0.1554221785164696
2725432.531281028	0.15683283919897356
2776153.2944368036	0.15826975251681144
2827817.979625338	0.15973340703599329
2880444.1533962977	0.16122430041482708
2934049.709215787	0.16274293957312513
2988652.873550383	0.16428984086456475
3044272.2120643063	0.16586553025225267
3100926.6359319235	0.16747054348755805
3158635.408267819	0.16910542629227543
3217418.1506763715	0.17060064298320204
3277294.849923382	0.1721122415881608
3338285.8647317644	0.17365197130036555
3400411.9327037027	0.1752203556445083
3463694.1773717343	0.17681792788816583
3528154.1153808828	0.17844523122311418
3593813.6638046256	0.18010281895002128
3660695.147596906	0.18179125466657475
3728821.30718283	0.18351111245911036
3798215.306190736	0.18526297709780948
3868900.7393279755	0.18704744423552486
3940901.6404034477	0.18886512061031085
4014242.490499326	0.19062546810847367
4088948.226294856	0.19230613079313344
4165044.248545185	0.19401807089632983
4242556.430717777	0.19576187049614335
4321511.127789762	0.1975381225032273
4401935.1852088785	0.19934743086240325
4483855.948021181	0.20119041075800767
4567301.270168747	0.20306768882306372
4652299.523960189	0.20497990335234031
4738879.609717651	0.2069277045193816
4827070.965603188	0.2089117545975716
4916903.577628021	0.2109327281853143
5008407.989848212	0.2129913124354061
5101615.314749833	0.21486847824312474
5196557.243827657	0.2167719383651678
5293266.058360566	0.21871082220396743
5391774.640387494	0.2206857890009193
5492116.483887789	0.2226975102660154
5594325.706169377	0.22474667000616097
5698437.0594691355	0.22683396495774755
5804485.942768984	0.22896010482354906
5912508.413831869	0.231125812514028
6022541.201461928	0.23333182439313538
6134621.717992506	0.2355788905286788
6248788.072006888	0.23786777494735642
6365079.081295578	0.2400781649740453
6483534.286054714	0.24219461370180645
6604193.962330305	0.24435044990051813
6727099.135712336	0.24654640657771598
6852291.595284057	0.2487832303823317
6979813.907830667	0.2510616818585604
7109709.432312423	0.2533825357044534
7242022.334607315	0.25574658103532616
7376797.60252773	0.25815462165206265
7514081.061116962	0.26060747631441905
7653919.388230155	0.2631059790194101
7796360.130405221	0.26565097928487563
7941451.71902934	0.26824334243832904
8089243.486805938	0.27060020829387726
8239785.684528512	0.2729973109358345
8393129.498166373	0.27543902406584025
8549327.066268368	0.2779261778926669
8708431.497690724	0.2804596180754153
8870496.889654402	0.2830402060110445
9035578.34613892	0.2856688191272581
9203731.99661823	0.28834635118083907
9375015.01514529	0.291073712561535
9549485.639791967	0.29385183060160247
9727203.192450536	0.29668164989110896
9908228.099003786	0.2995641325991038
10092621.909870483	0.3023398123290767
10280447.320933098	0.3050052153735687
10471768.194855202	0.307720222022253
10666649.582795387	0.31048575540664386
10865157.746525371	0.31330275583789036
11067360.180959744	0.3161721811264921
11273325.63710487	0.3190950069079643
11483124.14543511	0.32207222697456583
11696827.039703846	0.3251048536131987
11914506.981197748	0.32819391794959607
12136237.983442418	0.33134047029891683
12362095.437367693	0.3345455805228629
12592156.13694151	0.33780585853233347
12826498.3052806	0.34076962117233156
13065201.621247198	0.3437885399393617
