# Frequency (Hz)	Imaginary Part (Ohm)
1000.0	1181957324.833477
1018.6101701559753	1176958849.4513593
1037.566678745186	1171867351.5918593
1056.875971184804	1166681100.0908458
1076.544612842316	1161398331.5669262
1096.5792912678098	1156017249.8218825
1116.9868184678226	1150536025.2299402
1137.7741332214914	1144952794.1156785
1158.9483034398106	1139265658.1203604
1180.5165285688056	1133472683.5564687
1202.4861420374123	1127571900.7502344
1224.8646137509306	1121561303.3719225
1247.6595526308697	1115438847.753661
1270.8787092020582	1110278223.3653054
1294.529978227916	1106054330.6713192
1318.6214013947485	1101751830.615578
1343.1611700460153	1097369260.301703
1368.1576279674719	1092905129.608566
1393.6192742241421	1088357920.6836317
1419.5547660501015	1083726087.4268692
1445.9729217920196	1079008054.9650645
1472.8827239075017	1074202219.1163442
1500.2933220192183	1069306945.8447372
1528.2140360258693	1064320570.704586
1556.654359271062	1059241398.2746147
1585.6239617711371	1054101455.2663203
1615.1326935030913	1050194456.7335343
1645.1905877536624	1046214748.293254
1675.8078645307671	1042160976.8017292
1706.994934038408	1038031763.9329734
1738.7624002162504	1033825705.71012
1771.1210643450886	1029541372.028053
1804.0819287193829	1025177306.1671581
1837.6562003881704	1020732024.29802
1871.8552949655793	1016204014.9769058
1906.690840512252	1011591738.631858
1942.1746814890264	1006893627.0392224
1978.3188827841643	1002108082.7904361
2015.1357338155585	997699503.3218668
2052.6377527092523	993613590.7967614
2090.83769055575	989451638.7443211
2129.748535745521	985212232.0560039
2169.3835183851843	980893929.2878568
2209.756114795903	976495262.1704093
2250.880052095462	972014735.109447
2292.7693128656488	967450824.6774917
2335.438139906479	962801979.0958207
2378.9010410788933	958066617.7068462
2423.1727942376006	953243130.4366727
2468.2684522556924	948329877.2476561
2514.2033481427966	943355770.639629
2560.9931002584594	938875562.3110412
2608.6536176225477	934311976.5431248
2657.201105324507	929663461.6675454
2706.652070033241	924928437.1391594
2757.0233256095826	920105292.9986074
2808.3319988231724	915192389.3249127
2860.595535175742	910188055.6778908
2913.8317048327885	905090590.5301803
2968.058608665602	899898260.688707
3023.2946844057765	894609300.7053779
3079.5587129142264	889221912.2768108
3136.8698245668766	883734263.6328918
3195.2475057592137	878490857.6469649
3254.711605531848	873421763.6170622
3315.282342319423	868258332.8847264
3376.9803108250912	862998809.827873
3439.8264890229248	857641406.1519923
3503.8422452906757	852184300.2821093
3569.0493456752297	846625636.7434285
3635.4699612933177	840963525.5304531
3703.126675869927	835196041.4643621
3772.0424934169973	829321223.5384294
3842.240846055061	823337074.2512594
3913.745601980384	817241558.9276168
3986.581073580439	811097520.3333347
4060.7720257003652	805647188.2052065
4136.343684063274	800095424.4687676
4213.321743847289	794440341.4645276
4291.732378422157	788680016.4033328
4371.602248248502	782812490.7125953
4452.958509942656	776835769.3703583
4535.828825510186	770747820.2269678
4620.241371751313	764546573.3141177
4706.224849841282	758229920.1410403
4793.808495089107	751795712.9775959
4883.02208687788	745241764.1240205
4973.895958790063	738565845.1670868
5066.461008921268	732522701.0856206
5160.7487103859075	726903535.9477317
5256.791122018419	721179797.1904922
5354.620899273607	715349538.6810516
5454.271305329837	709410778.0686971
5555.7762223988775	703361496.1108314
5659.170163246243	697199635.9864082
5764.488282925873	690923102.5965923
5871.766390733255	684529761.852402
5981.040962380944	678017439.9490972
6092.349152400711	671383922.6270615
6205.7288067765	664626954.4189304
6321.218475812449	657912377.4703922
6438.857427240419	652600130.0690309
6558.685659571435	647189020.8396198
6680.743915695614	641677209.9467169
6805.073696735207	636062823.3152295
6931.7172761554075	630343951.9932084
7060.717714137772	624518651.5027848
7192.118872221193	618584941.1790243
7325.9654282152305	612540803.4964827
7462.302891391108	606384183.383223
7601.17761795533	600112987.5220695
7742.63682681127	593725083.6388586
7886.728615614156	587218299.7774408
8033.501977124734	581748231.2428061
8183.006815867389	576915636.5458463
8335.293965098195	571993106.4392809
8490.415204088747	566978967.2098346
8648.423275731726	561871513.9961425
8809.37190447399	556669010.20908
8973.31581458352	551369686.9413031
9140.310748756232	545971742.3658012
9310.413487069076	540473341.1232569
9483.681866285928	534872613.69800276
9660.174799522645	529167655.7823677
9839.952296278227	523356527.6291901
10023.075482838643	517665887.37762976
10209.606623060476	513484621.9638477
10399.609139541202	509225542.4892484
10593.147635183701	504887200.82091886
10790.287915161836	500468121.875947
10991.097009294961	495966803.11987656
11195.643194838794	491381714.0558288
11403.996019700331	486711295.70411944
11616.226326085018	481953960.0721851
11832.40627458378	477108089.61465144
12052.609368708414	472172036.6833492
12276.910479883603	467144122.9670959
12505.385872903913	462022638.92105424
12738.113231864785	457837827.0665711
12975.171686575868	454167382.1964977
13216.641839466038	450428629.7228442
13462.60579298911	446620298.42948437
13713.147177539457	442741093.44274527
13968.351179887397	438789695.7911331
14228.30457214352	434764761.95687044
14493.095741262152	430664923.4190856
14762.81471909391	426488786.18850017
15037.553212997384	422234930.3334593
15317.404637020798	417901909.4971371
15602.46414366368	413488250.40576154
15892.828656229764	409196885.2509603
16188.596901781992	405994850.7008352
16489.86944471065	402733225.7428872
16796.74872092653	399410901.389487
17109.339072690134	396026748.0145566
17427.746784089173	392579614.9694848
17752.08011717636	389068330.1918936
18082.44934877952	385491699.8071256
18418.96680799711	381848507.7223122
18761.746914391195	378137515.2128894
19110.90621689136	374357460.50141877
19466.563433422634	370507058.3285682
19828.839491270715	366584999.51611257
20197.857568198782	363366813.96817124
20573.743134329117	360488161.5934059
20956.623994804308	357555937.0081263
21346.630333242454	354569143.2243788
21743.8947560008	351526764.7000953
22148.552337263594	348427766.99379593
22560.74066496859	345271096.4128694
22980.599887588487	342055679.65530545
23408.272761782944	338780423.44476044
23843.904700937204	335444214.15883327
24287.643824604504	332045917.45041895
24739.641008868115	328584377.86202055
25200.049937640895	325238868.43016374
25669.02715491952	322689678.3346943
26146.73211801092	320093047.3777886
26633.327251749808	317448092.67694265
27128.978003724646	314753914.9190591
27633.85290053167	312009598.0546709
28148.123605075813	309214208.98647416
28671.9649749377	306366797.25206655
29205.555121827452	303466394.70077735
29749.075472144435	300512015.16448754
30302.71082866393	297502654.1223228
30866.649433372746	294437288.3591018
31441.083031472648	291314875.6174374
32026.206936576502	288772998.4903481
32622.220097116733	286476796.6242717
33229.325163989684	284137862.0507557
33847.72855945983	281755399.5068423
34477.64054734464	279328598.9295967
35119.275304507275	276856635.18067396
35772.850993678774	274338667.7657641
36438.58983763541	271773840.54881614
37116.71819475767	269161281.46093947
37807.46663599349	266500102.20389524
38511.07002325569	263789397.94806182
39227.76758927724	261028247.02478448
39957.803018952654	258381207.57655537
40701.42453219439	256353031.51898655
41458.88496832911	254287110.7598803
42230.44187206672	252182742.8639183
43016.357581068	250039212.32334152
43816.89931514195	247855790.3146703
44632.33926710398	245631734.45089534
45462.95469532399	243366288.52905917
46309.02801799737	241058682.2731385
47170.84690917022	238708131.07214186
48048.70439655134	236313835.7133346
48942.898961145314	233874982.1104963
49853.73463873893	231390741.02712366
50781.5211232767	229388292.29664055
51726.57387216025	227563612.34635234
52689.21421350677	225704974.7917094
53669.76945540476	223811747.67591617
54668.57299720181	221883287.28135413
55685.96444286409	219918937.91071025
56722.28971644549	217918031.6640327
57777.90117970507	215879888.2116385
58853.15775191451	213803814.56279302
59948.42503189409	211689104.83008614
61064.07542232036	209535039.9894231
62200.48825634718	207340887.63554808
63358.04992658254	205253801.05431902
64537.15401646702	203642026.76384982
65738.20143409586	202000257.07958195
66961.60054853215	200327933.7821329
68207.76732865692	198624488.2635624
69477.1254846024	196889341.33404002
70770.10661181889	195121903.02491358
72087.15033782135	193321572.38811415
73428.70447166757	191487737.29182684
74795.2251562183	189619774.21235943
76187.17702322999	187717048.0221383
77605.0333513357	185778911.77375686
79049.2762269642	183804706.4800076
80520.3967082547	182227900.18701106
82018.89499202212	180777703.61519396
83545.28058382872	179300518.63841596
85100.07247122246	177795842.9978682
86683.79930019774	176263165.08762035
88296.99955494083	174701963.78066844
89940.22174092053	173111708.25174627
91614.0245713852	171491857.79683954
93318.97715733238	169841861.64933977
95055.6592010119	168161158.79277834
96824.66119303113	166449177.77007467
98626.5846131283	164705336.48923445
100462.04213468131	163059624.40196878
102331.6578330245	161778663.69966298
104236.06739764012	160473864.10072413
106175.9183482999	159144781.95922962
108151.87025522892	157790965.3729304
110164.59496336569	156411954.02960038
112214.77682079803	155007279.05052397
114303.11291144787	153576462.83107308
116430.31329208757	152119018.87831628
118597.10123376705	150634451.6456057
120804.21346773289	149122256.36408663
123052.40043592616	147581918.87106937
125342.42654613995	146012915.43520942
127675.07043192645	144771375.9566941
130051.12521734099	143618851.16153103
132471.39878661174	142444877.68382114
134936.71405883064	141249056.35993245
137447.90926775365	140030980.59773007
140005.8382468096	138790236.23833022
142611.37071941298	137526401.41528174
145265.39259467812	136239046.4111274
147968.80626863963	134927733.5112946
150722.53093107554	133592016.85526824
153527.5028780421	132231442.28499301
156384.6758302248	130845547.19045492
159295.0212572123	129547993.51222444
162259.5287078087	128529977.42022735
165279.2061464897	127493015.87553656
168355.08029612005	126436756.30005409
171488.19698705408	125360839.55414277
174679.62151272458	124264899.8145165
177930.43899185772	123148564.44985512
181241.75473742394	122011453.89410612
184614.69463245457	120853181.51742873
188050.40551285836	119673353.49473412
191550.05555735278	118471568.67178252
195114.83468466165	117247418.42878494
198745.9549580986	116000486.54146856
202444.65099768018	115023032.02289815
206212.18039991445	114107095.65251131
210049.82416539153	113174113.55041961
213958.88713434216	112223768.49265553
217940.6984302958	111255737.35165946
221996.61191199525	110269690.98641337
226128.00663372796	109265294.13052817
230336.28731421314	108242205.2782509
234622.88481422624	107200076.56834811
238989.25662310526	106138553.66582946
243436.8873543108	105057275.64147072
247967.289250216	103955874.84909248
252582.00269627848	102932905.59450951
257282.5967447932	102123871.87183781
262070.66964838552	101299781.89392516
266947.8494034318	100460355.46129988
271915.7943036019	99605307.15992986
276976.1935036891	98734346.26417984
282130.76759394706	97847176.63796072
287381.2691851069	96943496.63404036
292729.4835042813	96022998.9914807
298177.22900196735	95085370.73116457
303726.35797033116	94130293.04938108
309378.7571730137	93157441.20942739
315136.34848664823	92166484.4311955
321001.08955431683	91397017.76169463
326974.9744511768	90669112.44735639
333060.03436245886	89927660.69126095
339258.33827409917	89172410.39182214
345571.9936762143	88403104.75580034
352003.14727966755	87619482.21099037
358553.9857459817	86821276.31728327
365226.7364308176	86008215.67607486
372023.6681413066	85180023.83798644
378947.09190746717	84336419.20886931
385999.3617679763	83477114.95406014
393182.87557057705	82601818.90085301
400500.07578736113	81795386.23671244
407953.4503452449	81152440.5405953
415545.53347188793	80497529.51567227
423278.90655735444	79830430.48513854
431156.19903182285	79150916.62813555
439180.0892596086	78458756.90263046
447353.3054498463	77753715.96685863
455678.6265841069	77035554.09930506
464158.8833612772	76304027.11719695
472796.9591600391	75558886.29347795
481595.7910192351	74799878.27223946
490558.37063650455	74026744.982576
499687.7453854889	73239223.55083853
508987.01935196744	72633545.55950832
518459.3543892913	72055075.31749432
528107.971193433	71465839.64584635
537936.1503980698	70865638.19808702
547947.2336900292	70254266.89925696
558144.6249454955	69631517.87652735
568531.7913873753	68997179.3885201
579112.2647641759	68351035.75331467
589889.6425508494	67692867.27511284
600867.5891719693	67022450.1695403
612049.837247669	66339556.487557724
623440.1888627864	65643954.03795486
635042.5168595962	65008266.913150065
646860.7661546321	64497315.94078493
658898.9550799957	63976856.08388266
671161.1767496273	63446710.380484186
683651.6004510239	62906698.5753379
696374.4730628222	62356637.05861166
709334.1204987989	61796338.803462915
722534.9491787221	61225613.30244766
735981.4475265756	60644266.50274631
749678.1874966876	60052100.74018274
763629.8261282241	59448914.67201738
777841.1071286482	58834503.208487764
792316.8624866261	58208657.44307601
807062.014114949	57731948.57969936
822081.5755240541	57272237.46388976
837380.653526649	56803971.04599242
852964.4499741016	56326990.110379666
868838.2635251193	55841132.47839396
885007.4914473438	55346232.95320547
901477.6314524917	54842123.26364311
918254.2835656282	54328632.00698072
935343.1520292377	53805584.59065823
952750.04724273	53272803.17291829
970480.8877380306	52730106.60233832
988541.7021919574	52177310.356236786
1006938.6314760271	51676250.77700761
1025677.9307444209	51270198.06322163
1044765.9715608052	50856588.63933977
1064209.2440647245	50435281.873701386
1084014.359178331	50006134.51746661
1104188.0508541602	49569000.65591032
1124737.1783647507	49123731.65880952
1145668.7286348727	48670176.12990745
1166989.8186171474	48208179.85543738
1188707.6977119034	47737585.751688
1210829.7502320395	47258233.81159344
1233363.4979137748	46769961.05032912
1256316.6024741214	46272601.449895106
1279696.8682159416	45897434.800050125
1303512.244681509	45532102.90524358
1327770.8293554292	45159972.12171129
1352480.870417874	44780915.92097718
1377650.769549055	44394805.419848695
1403289.084785873	44001509.336595245
1429404.533431761	43600893.946310766
1456005.9950206485	43192823.03544599
1483102.5143361029	42777157.85549432
1510703.3044866556	42353757.07581578
1538817.7500383463	41922476.7355833
1567455.410205595	41483170.194834165
1596626.022101425	41088252.80015547
1626339.5040481905	40765563.493078895
1656605.9589499151	40436868.883090064
1687435.6777273756	40102057.21048004
1718839.1428171457	39761014.635672525
1750827.0317357269	39413625.200517386
1783410.2207100063	39059770.78886368
1816599.7883753285	38699331.086398594
1850407.019542302	38332183.53973969
1884843.4090337954	37958203.314765126
1919920.6655932867	37577263.254168764
1955650.715865947	37189233.834225565
1992045.7084538713	36793983.12075162
2029118.018046678	36498757.06280467
2066880.2496290822	36208428.773859434
2105345.242766708	35912697.4260558
2144526.0759716653	35611462.467549145
2184436.0711494284	35304621.47520768
2225088.7981283693	34992070.11978796
2266498.079273693	34673702.130461395
2308677.994187172	34349409.2586812
2351642.884494346	34019081.24137689
2395407.3587208795	33682605.763463184
2439986.29725955	33339868.41965223
2485394.8574297987	32990752.675554138
2531648.478631358	32679513.54147781
2578762.8875937983	32423073.394734763
2626754.1037238385	32161860.85322594
2675638.4445520453	31895787.101872787
2725432.531281028	31624761.672732923
2776153.294436804	31348692.414240133
2827817.979625338	31067485.459872022
2880444.1533962977	30781045.196234018
2934049.7092157872	30489274.23055021
2988652.8735503824	30192073.357548464
3044272.212064306	29889341.52572961
3100926.6359319235	29580975.803009048
3158635.408267819	29266871.34171832
3217418.1506763715	29034574.028870735
3277294.849923382	28803851.186230034
3338285.8647317644	28568834.552228894
3400411.9327037027	28329444.21867956
3463694.1773717343	28085598.790289123
3528154.115380883	27837215.35698461
3593813.6638046256	27584209.465722382
3660695.147596906	27326495.09177326
3728821.30718283	27063984.609473366
3798215.306190736	26796588.762430094
3868900.7393279755	26524216.633174364
3940901.6404034477	26246775.61224744
4014242.490499326	26001500.75986289
4088948.226294856	25797708.776880886
4165044.248545185	25590124.190419115
4242556.430717777	25378676.41948156
4321511.127789762	25163293.569547758
4401935.185208879	24943902.40812798
4483855.948021182	24720428.339863516
4567301.270168747	24492795.381163154
4652299.523960189	24260926.13436829
4738879.609717651	24024741.761436637
4827070.965603188	23784161.95713652
4916903.577628021	23539104.92174234
5008407.989848212	23289487.333221495
5101615.314749834	23106722.702474974
5196557.243827658	22923368.209694173
5293266.058360566	22736601.458603844
5391774.640387494	22546358.94649629
5492116.483887789	22352575.988867465
5594325.706169377	22155186.697423864
5698437.059469136	21954123.957679525
5804485.942768984	21749319.4061365
5912508.413831869	21540703.407040585
6022541.201461928	21328205.028704192
6134621.717992506	21111752.01938911
6248788.072006888	20891270.782739904
6365079.081295578	20697992.76902599
6483534.286054714	20536040.154794306
6604193.962330305	20371073.574854527
6727099.135712337	20203036.938792042
6852291.595284058	20031873.112339992
6979813.907830667	19857523.897953108
7109709.432312424	19679930.015019957
7242022.334607315	19499031.07970672
7376797.602527731	19314765.58442629
7514081.061116962	19127070.87692482
7653919.388230155	18935883.13897935
7796360.130405221	18741137.364699017
7941451.71902934	18542767.338422127
8089243.486805938	18398987.52401794
8239785.684528511	18253276.51251469
8393129.498166373	18104853.794293754
8549327.066268368	17953668.904031742
8708431.497690724	17799670.43723691
8870496.889654404	17642806.032771282
9035578.34613892	17483022.355047137
9203731.99661823	17320265.075892378
9375015.015145289	17154478.856078442
9549485.639791965	16985607.32650425
9727203.192450536	16813593.069030188
9908228.099003788	16638377.596955277
10092621.909870485	16486083.802499134
10280447.320933098	16357380.768995812
10471768.194855202	16226282.550139405
10666649.582795387	16092744.571122935
10865157.746525373	15956721.427594682
11067360.180959744	15818166.870220203
11273325.63710487	15677033.788957115
11483124.145435112	15533274.197037084
11696827.039703846	15386839.214649865
11914506.981197748	15237679.052323636
12136237.983442418	15085742.993996004
12362095.43736769	14930979.379770085
12592156.13694151	14773916.352869865
12826498.3052806	14660236.056081878
13065201.621247198	14544440.149627289
13308347.24654076	14426489.261650195
13556017.853293689	14306343.287577815
13808297.652180923	14183961.376484392
14065272.421052365	14059301.91720151
14327029.534098294	13932322.524169818
14593657.991557576	13802980.02302749
14865248.449978571	13671230.43593052
15141893.25304352	13537028.966599694
15423686.462966274	13400329.985089442
15710723.89247449	13261087.012273133
16003103.137387017	13141095.121503575
16300923.60979741	13038815.36874759
16604286.571875297	12934632.172389308
16913295.17029647	12828510.109019406
17228054.471313924	12720413.095992886
17548671.49648152	12610304.379160581
17875255.259042356	12498146.52037238
18207916.800994623	12383901.384747801
18546769.230846975	12267530.127709756
18891927.762076642	12148993.181776969
19243509.75230332	12028250.243110588
19601634.743191857	11905260.257810507
19966424.501097932	11781365.677936003
20338003.0584698	11691024.412616367
20716496.75602067	11599001.880977025
21102034.285685964	11505266.794365682
21494746.734379806	11409787.281842928
