# Frequency (Hz)	Real Part (Ohm/m)
1000.0	7254330.021557121
1018.6101701559753	7263375.340589177
1037.566678745186	7272588.994547536
1056.875971184804	7281974.116173819
1076.5446128423157	7291533.896510498
1096.5792912678098	7301271.585985899
1116.9868184678226	7311190.495519363
1137.7741332214914	7321293.997647008
1158.9483034398106	7331585.527668415
1180.5165285688054	7342068.584814692
1202.4861420374123	7352746.733438212
1224.8646137509306	7363623.604224566
1247.6595526308697	7374702.895427019
1270.8787092020582	7383972.8992905
1294.529978227916	7391480.504706465
1318.6214013947485	7399127.827936681
1343.1611700460153	7406917.469153449
1368.1576279674719	7414852.076918719
1393.619274224142	7422934.34908462
1419.5547660501015	7431167.033710772
1445.9729217920194	7439552.92999866
1472.882723907502	7448094.889243376
1500.2933220192183	7456795.8158031
1528.2140360258693	7465658.668086619
1556.654359271062	7474686.4595591985
1585.6239617711371	7483797.722029679
1615.132693503091	7489751.004412638
1645.1905877536624	7495815.078393726
1675.807864530767	7501992.005823441
1706.9949340384078	7508283.886923664
1738.7624002162504	7514692.8610017635
1771.1210643450886	7521221.107177982
1804.0819287193826	7527870.845126361
1837.6562003881704	7534644.335829449
1871.8552949655793	7541543.882347074
1906.690840512252	7548571.830599387
1942.1746814890264	7555730.570164529
1978.3188827841643	7563022.535091076
2015.1357338155585	7568910.869686122
2052.6377527092523	7573571.977052285
2090.8376905557498	7578319.828419653
2129.748535745521	7583156.038108839
2169.3835183851843	7588082.250483247
2209.756114795903	7593100.140508175
2250.880052095462	7598211.414320285
2292.7693128656488	7603417.809807757
2335.438139906479	7608721.097201147
2378.9010410788933	7614123.079675314
2423.1727942376006	7619625.593962503
2468.2684522556924	7625230.510976868
2514.2033481427966	7630822.91536836
2560.9931002584594	7634279.209405585
2608.6536176225477	7637799.825662948
2657.2011053245064	7641385.961187921
2706.652070033241	7645038.835305211
2757.0233256095826	7648759.690031384
2808.3319988231724	7652549.790497139
2860.5955351757416	7656410.425377469
2913.831704832789	7660342.907329829
2968.0586086656026	7664348.57344046
3023.2946844057765	7668428.785678998
3079.5587129142264	7672584.93136157
3136.8698245668766	7676818.423622485
3195.2475057592133	7680084.497716463
3254.711605531848	7682590.104330323
3315.282342319423	7685142.340709607
3376.9803108250912	7687742.074642193
3439.8264890229243	7690390.190065622
3503.8422452906757	7693087.58736767
3569.0493456752292	7695835.1836924935
3635.4699612933177	7698633.913252438
3703.126675869927	7701484.727645714
3772.0424934169973	7704388.596179931
3842.240846055061	7707346.506201683
3913.745601980384	7710359.463432246
3986.581073580439	7713323.018389273
4060.7720257003657	7715028.814956038
4136.343684063274	7716766.356687162
4213.321743847289	7718536.234365557
4291.732378422157	7720339.049768698
4371.602248248501	7722175.415873256
4452.958509942655	7724045.957063484
4535.828825510186	7725951.3093435485
4620.241371751313	7727892.120553755
4706.224849841281	7729869.050590821
4793.808495089106	7731882.771632259
4883.02208687788	7733933.968364931
4973.895958790063	7736023.33821782
5066.461008921268	7737555.204872957
5160.7487103859075	7738692.962742023
5256.791122018419	7739851.894478626
5354.620899273607	7741032.394132051
5454.271305329836	7742234.86308489
5555.7762223988775	7743459.71018955
5659.170163246242	7744707.351907245
5764.488282925873	7745978.212449598
5871.766390733255	7747272.723922889
5981.040962380945	7748591.326474969
6092.349152400711	7749934.468444909
6205.7288067765	7751302.606515454
6321.218475812449	7752629.032487535
6438.8574272404185	7753369.976856346
6558.685659571435	7754124.710325939
6680.743915695614	7754893.48951382
6805.073696735206	7755676.575813201
6931.717276155407	7756474.235481864
7060.717714137772	7757286.739732685
7192.118872221193	7758114.364825864
7325.96542821523	7758957.392162857
7462.302891391108	7759816.108382034
7601.17761795533	7760690.805456164
7742.636826811269	7761581.780791682
7886.728615614156	7762489.3373297965
8033.501977124735	7763169.239087295
8183.00681586739	7763705.649580771
8335.293965098195	7764252.042764804
8490.415204088747	7764808.604418963
8648.423275731726	7765375.523780211
8809.37190447399	7765952.993607237
8973.31581458352	7766541.2102459995
9140.310748756232	7767140.373696501
9310.413487069076	7767750.687680764
9483.681866285926	7768372.359712127
9660.174799522645	7769005.601165775
9839.952296278227	7769650.627350618
10023.075482838643	7770283.3916736
10209.606623060476	7770756.495375959
10399.609139541202	7771238.403618713
10593.1476351837	7771729.280255872
10790.287915161836	7772229.292190768
10991.097009294961	7772738.609432853
11195.643194838794	7773257.405155484
11403.99601970033	7773785.85575478
11616.22632608502	7774324.140909651
11832.40627458378	7774872.443642847
12052.609368708414	7775430.950383203
12276.910479883603	7775999.851029035
12505.385872903913	7776579.339012685
12738.113231864783	7777126.513494143
12975.171686575868	7777659.137472127
13216.641839466038	7778201.673672973
13462.60579298911	7778754.3065648265
13713.147177539455	7779317.224048835
13968.351179887397	7779890.617523003
14228.30457214352	7780474.681947294
14493.09574126215	7781069.615909903
14762.81471909391	7781675.621694786
15037.553212997384	7782292.90535044
15317.404637020798	7782921.676759961
15602.46414366368	7783562.149712405
15892.828656229764	7784211.547802228
16188.596901781993	7784855.907009341
16489.86944471065	7785512.257850942
16796.74872092653	7786180.82349339
17109.339072690134	7786861.831256199
17427.746784089173	7787555.512689355
17752.08011717636	7788262.103652016
18082.44934877952	7788981.844392723
18418.96680799711	7789714.979631079
18761.746914391195	7790461.758640971
19110.90621689136	7791222.4353353055
19466.56343342263	7791997.268352356
19828.83949127071	7792786.521143698
20197.857568198782	7793556.429657651
20573.743134329114	7794323.16854665
20956.623994804308	7795104.176576831
21346.630333242454	7795899.719299352
21743.8947560008	7796710.067207305
22148.55233726359	7797535.495827708
22560.74066496859	7798376.2858151905
22980.599887588487	7799232.7230474055
23408.272761782944	7800105.09872224
23843.904700937208	7800993.70945682
24287.643824604504	7801898.857388377
24739.64100886812	7802820.8502769545
25200.049937640895	7803733.040549474
25669.027154919517	7804533.926298744
26146.732118010917	7805349.716668084
26633.327251749808	7806180.689035012
27128.978003724646	7807027.125939078
27633.852900531667	7807889.315177956
28148.123605075813	7808767.549905279
28671.964974937695	7809662.128730313
29205.55512182745	7810573.355819499
29749.075472144435	7811501.540999865
30302.71082866393	7812446.999864375
30866.649433372742	7813410.053879229
31441.08303147265	7814391.030493166
32026.206936576502	7815172.740839989
32622.220097116733	7815869.209870433
33229.325163989684	7816578.640308049
33847.72855945983	7817301.273366816
34477.640547344636	7818037.354749764
35119.275304507275	7818787.134732503
35772.850993678774	7819550.8682483
36438.58983763541	7820328.8149747765
37116.71819475767	7821121.239422206
37807.466635993485	7821928.411023438
38511.070023255685	7822750.604225513
39227.76758927723	7823588.098582987
39957.803018952654	7824338.701096201
40701.42453219439	7824689.561074874
41458.88496832911	7825046.950617456
42230.441872066716	7825410.991240236
43016.35758106799	7825781.806720949
43816.89931514194	7826159.523140852
44632.33926710397	7826544.268927603
45462.95469532399	7826936.174898909
46309.02801799736	7827335.37430703
47170.84690917023	7827742.002884061
48048.704396551344	7828156.1988881
48942.89896114532	7828578.103150253
49853.73463873894	7829007.859122514
50781.5211232767	7828931.666530835
51726.57387216024	7828644.754511478
52689.21421350677	7828352.503010627
53669.76945540476	7828054.8126596175
54668.57299720181	7827751.582240515
55685.96444286408	7827442.708651723
56722.28971644549	7827128.086872884
57777.90117970507	7826807.609929209
58853.1577519145	7826481.1688550785
59948.42503189408	7826148.6526570115
61064.07542232036	7825809.94827592
62200.48825634718	7825464.940548666
63358.04992658254	7824911.453020841
64537.15401646702	7823645.231865438
65738.20143409586	7822355.446118877
66961.60054853215	7821041.657240111
68207.76732865692	7819703.4185267575
69477.1254846024	7818340.274963247
70770.10661181889	7816951.7630660655
72087.15033782135	7815537.41072622
73428.70447166759	7814096.737048663
74795.22515621828	7812629.252188832
76187.17702322999	7811134.457186054
77605.0333513357	7809611.84379393
79049.2762269642	7808060.894307495
80520.39670825469	7805728.243443169
82018.8949920221	7803081.742184752
83545.28058382872	7800385.989087593
85100.07247122246	7797640.067566601
86683.79930019773	7794843.043978865
88296.99955494082	7791993.96730623
89940.22174092053	7789091.868831937
91614.0245713852	7786135.761811224
93318.9771573324	7783124.641135853
95055.65920101192	7780057.4829923585
96824.66119303115	7776933.244513916
98626.5846131283	7773750.863425782
100462.04213468132	7770250.105347377
102331.65783302448	7765899.5340419905
104236.06739764012	7761467.997864334
106175.9183482999	7756953.990044359
108151.87025522892	7752355.975770769
110164.59496336569	7747672.391669166
112214.77682079801	7742901.645270494
114303.11291144785	7738042.114469565
116430.31329208757	7733092.146973564
118597.10123376705	7728050.0597401885
120804.21346773289	7722914.13840546
123052.40043592616	7717682.636700785
125342.42654613995	7712353.775859213
127675.07043192645	7706214.277670336
130051.12521734099	7699736.867323385
132471.39878661174	7693138.911267708
134936.71405883064	7686418.166127152
137447.90926775365	7679572.346775955
140005.8382468096	7672599.125561778
142611.37071941295	7665496.131514266
145265.39259467812	7658260.949538915
147968.80626863963	7650891.119595893
150722.53093107554	7643384.135863612
153527.5028780421	7635737.445886715
156384.67583022476	7627948.449708217
159295.0212572123	7619830.129578283
162259.5287078087	7611070.156383339
165279.2061464897	7602147.158596681
168355.08029612005	7593058.102302907
171488.19698705408	7583799.897124953
174679.62151272455	7574369.395173296
177930.43899185772	7564763.389975659
181241.75473742394	7554978.6153867785
184614.69463245454	7545011.7444778625
188050.40551285836	7534859.388405405
191550.0555573528	7524518.095258956
195114.83468466165	7513984.348887422
198745.9549580986	7503254.567703529
202444.65099768018	7492126.188020348
206212.18039991445	7480736.53503261
210049.8241653915	7469134.918664757
213958.88713434213	7457317.3942422075
217940.6984302958	7445279.943679337
221996.61191199525	7433018.474113248
226128.00663372793	7420528.8165121665
230336.2873142131	7407806.724257941
234622.88481422624	7394847.871702124
238989.25662310526	7381647.852695218
243436.8873543108	7368202.179088536
247967.289250216	7354506.279208164
252582.00269627848	7340652.747027611
257282.59674479323	7326770.419642448
262070.66964838552	7312629.739782485
266947.8494034318	7298225.899464212
271915.7943036019	7283554.001226709
276976.1935036891	7268609.0564664975
282130.76759394706	7253385.983741327
287381.2691851069	7237879.607042444
292729.4835042813	7222084.654034696
298177.22900196735	7205995.754263862
303726.3579703311	7189607.437330674
309378.75717301364	7172914.13103079
315136.34848664823	7155910.159460193
321001.08955431683	7139436.531211101
326974.97445117676	7122853.547246677
333060.03436245886	7105961.951128985
339258.33827409917	7088755.999533336
345571.9936762143	7071229.8422507895
352003.1472796675	7053377.520199043
358553.9857459817	7035192.963396226
365226.7364308175	7016669.988897103
372023.6681413066	6997802.298690753
378947.09190746717	6978583.477559218
385999.36176797637	6959006.990896224
393182.87557057705	6939066.1824853765
400500.07578736113	6919357.368539926
407953.45034524484	6900545.963139484
415545.53347188793	6881384.4742836645
423278.90655735444	6861866.386859806
431156.19903182285	6841985.064507862
439180.0892596086	6821733.747364025
447353.3054498463	6801105.54976226
455678.6265841068	6780093.457893111
464158.8833612772	6758690.327418952
472796.9591600391	6736888.881044787
481595.79101923504	6714681.7060439605
490558.37063650455	6692061.251737686
499687.7453854889	6669019.826927763
508987.0193519675	6647851.542454296
518459.3543892913	6626740.0914274445
528107.971193433	6605235.752704749
537936.1503980698	6583331.214579329
547947.2336900292	6561019.029272205
558144.6249454955	6538291.610399967
568531.7913873753	6515141.230395308
579112.2647641759	6491560.017879588
589889.6425508494	6467539.954986467
600867.5891719692	6443072.874635745
612049.837247669	6418150.457756482
623440.1888627863	6392764.230458391
635042.5168595961	6368175.7930993615
646860.7661546321	6345510.622143178
658898.9550799957	6322423.648498886
671161.1767496272	6298907.022346692
683651.6004510238	6274952.747780303
696374.4730628222	6250552.680088275
709334.1204987989	6225698.522984679
722534.9491787221	6200381.8257883005
735981.4475265755	6174593.980549313
749678.1874966878	6148326.219122469
763629.8261282243	6121569.610185858
777841.1071286482	6094315.056204141
792316.8624866261	6066553.290335294
807062.0141149492	6042162.224430563
822081.575524054	6017942.692951077
837380.6535266489	5993272.431869658
852964.4499741016	5968143.053031726
868838.2635251193	5942546.012177702
885007.4914473438	5916472.606037899
901477.6314524917	5889913.969373287
918254.2835656281	5862861.071961235
935343.1520292377	5835304.715525134
952750.0472427299	5807235.530606874
970480.8877380306	5778643.9733811505
988541.7021919573	5749520.322410431
1006938.6314760271	5721828.216929103
1025677.9307444209	5696940.469924523
1044765.9715608053	5671589.55771338
1064209.2440647245	5645766.860712386
1084014.359178331	5619463.598926314
1104188.0508541602	5592670.828962746
1124737.1783647507	5565379.440991206
1145668.7286348727	5537580.1556457225
1166989.8186171474	5509263.520869747
1188707.6977119034	5480419.908702342
1210829.7502320393	5451039.5120045915
1233363.4979137746	5421112.341125049
1256316.6024741214	5390628.220503143
1279696.8682159416	5364858.213493122
1303512.2446815087	5339284.2919732435
1327770.829355429	5313234.435422319
1352480.8704178738	5286699.786608447
1377650.769549055	5259671.323465117
1403289.084785873	5232139.856023638
1429404.533431761	5204096.02328843
1456005.9950206485	5175530.290054192
1483102.514336103	5146432.943663832
1510703.3044866556	5116794.090706062
1538817.7500383465	5086603.6536515225
1567455.410205595	5055851.367426311
1596626.022101425	5027104.795154011
1626339.5040481905	5001726.099977027
1656605.9589499151	4975875.102964456
1687435.6777273756	4949543.014498784
1718839.1428171454	4922720.881386203
1750827.0317357269	4895399.583812447
1783410.220710006	4867569.83224197
1816599.7883753285	4839222.164259359
1850407.019542302	4810346.94135207
1884843.4090337954	4780934.34563319
1919920.6655932867	4750974.37650324
1955650.715865947	4720456.847249924
1992045.7084538713	4689371.381584462
2029118.0180466783	4663956.343014026
2066880.2496290822	4638673.080926941
2105345.242766708	4612919.293030315
2144526.0759716653	4586686.222758773
2184436.0711494284	4559964.950585762
2225088.7981283693	4532746.390990828
2266498.079273693	4505021.289370436
2308677.994187172	4476780.218891292
2351642.884494346	4448013.577285145
2395407.358720879	4418711.583583888
2439986.29725955	4388864.274793948
2485394.857429798	4358461.502508725
2531648.478631358	4330484.360489988
2578762.8875937983	4306071.283672001
2626754.1037238385	4281203.875340393
2675638.4445520453	4255873.680308401
2725432.531281028	4230072.08603678
2776153.2944368036	4203790.319705463
2827817.979625338	4177019.445230729
2880444.1533962977	4149750.3602267876
2934049.709215787	4121973.7929109316
2988652.873550383	4093680.298950975
3044272.2120643063	4064860.258254116
3100926.6359319235	4035503.8716959907
3158635.408267819	4005601.157788849
3217418.1506763715	3981848.849575485
3277294.849923382	3958105.7693072287
3338285.8647317644	3933920.8262751475
3400411.9327037027	3909285.797338035
3463694.1773717343	3884192.306320599
3528154.1153808828	3858631.821165523
3593813.6638046256	3832595.651032442
3660695.147596906	3806074.94334297
3728821.30718283	3779060.6807707488
3798215.306190736	3751543.678175412
3868900.7393279755	3723514.5794795984
3940901.6404034477	3694963.854487738
4014242.490499326	3669067.764054
4088948.226294856	3646619.777506319
4165044.248545185	3623754.030109321
4242556.430717777	3600462.7472625244
4321511.127789762	3576738.009678798
4401935.1852088785	3552571.7506917296
4483855.948021181	3527955.753512885
4567301.270168747	3502881.6484379754
4652299.523960189	3477340.910001116
4738879.609717651	3451324.854076039
4827070.965603188	3424824.634923405
4916903.577628021	3397831.2421831773
5008407.989848212	3370335.4978109594
5101615.314749833	3349033.9217243264
5196557.243827657	3327599.6040462307
5293266.058360566	3305766.390068968
5391774.640387494	3283526.856264541
5492116.483887789	3260873.4409518186
5594325.706169377	3237798.4417255153
5698437.0594691355	3214294.012837262
5804485.942768984	3190352.1625279747
5912508.413831869	3165964.7503105905
6022541.201461928	3141123.48420217
6134621.717992506	3115819.9179045847
6248788.072006888	3090045.4479326475
6365079.081295578	3066977.243707446
6483534.286054714	3047033.647495698
6604193.962330305	3026718.8975649225
6727099.135712336	3006026.086681263
6852291.595284057	2984948.1790660513
6979813.907830667	2963478.0080035864
7109709.432312423	2941608.273404377
7242022.334607315	2919331.539323005
7376797.60252773	2896640.2314298623
7514081.061116962	2873526.6344357645
7653919.388230155	2849982.88946869
7796360.130405221	2826000.991401674
7941451.71902934	2801572.78613096
8089243.486805938	2783055.8774217167
8239785.684528512	2764275.6923835925
8393129.498166373	2745146.004906347
8549327.066268368	2725660.310690122
8708431.497690724	2705811.984388922
8870496.889654402	2685594.2773579475
9035578.34613892	2665000.3153589605
9203731.99661823	2644023.0962229883
9375015.01514529	2622655.487469497
9549485.639791967	2600890.223881277
9727203.192450536	2578719.9050341905
9908228.099003786	2556136.992780948
10092621.909870483	2536174.8532525455
10280447.320933098	2518910.4262108924
10471768.194855202	2501324.705244351
10666649.582795387	2483411.7110183034
10865157.746525371	2465165.3529217076
11067360.180959744	2446579.426996205
11273325.63710487	2427647.6138267247
11483124.14543511	2408363.4763927995
11696827.039703846	2388720.4578799168
11914506.981197748	2368711.8794501335
12136237.983442418	2348330.93797119
12362095.437367693	2327570.703703387
12592156.13694151	2306495.2785231275
12826498.3052806	2290701.4338645935
13065201.621247198	2274613.6630695458
13308347.24654076	2258226.4961225726
13556017.853293689	2241534.361210342
13808297.652180923	2224531.582827129
14065272.421052363	2207212.379845082
14327029.534098294	2189570.86354857
14593657.991557576	2171601.0356319705
14865248.449978571	2153296.7861601696
15141893.25304352	2134651.8914911235
15423686.462966273	2115660.0121597447
15710723.892474487	2096314.6907224266
16003103.137387017	2079413.4904947272
16300923.609797413	2064758.3321870123
16604286.571875297	2049830.438889527
16913295.17029647	2034624.7349577076
17228054.471313924	2019136.0502883736
17548671.49648152	2003359.1185618495
17875255.259042352	1987288.5754513573
18207916.800994623	1970918.956799081
18546769.230846975	1954244.696758296
18891927.762076646	1937260.1259009277
19243509.75230332	1919959.4692898758
19601634.743191857	1902336.8445154843
19966424.501097932	1884571.3686404715
20338003.0584698	1871270.4545890244
20716496.75602067	1857722.0082638501
21102034.285685964	1843921.4230472147
21494746.734379806	1829864.0065914462
21894767.628566206	1815544.9792234823
22302232.979659364	1800959.4723197327
22717281.330269028	1786102.5266506928
23140053.80130654	1770969.0906947532
23570694.139967278	1755554.0189206307
