# Frequency (Hz)	Imaginary Part (Ohm/m)
1000.0	43379174.7249347
1018.6101701559753	43370922.3822313
1037.566678745186	43362516.46202601
1056.875971184804	43353954.10621538
1076.5446128423157	43345232.403506175
1096.5792912678098	43336348.38842551
1116.9868184678226	43327299.04031252
1137.7741332214914	43318081.28229134
1158.9483034398106	43308691.980224945
1180.5165285688054	43299127.94164944
1202.4861420374123	43289385.91468866
1224.8646137509306	43279462.586948484
1247.6595526308697	43269354.58439055
1270.8787092020582	43259173.9290638
1294.529978227916	43248914.65391011
1318.6214013947485	43238464.451900125
1343.1611700460153	43227819.76985258
1368.1576279674719	43216976.98846087
1393.619274224142	43205932.421062484
1419.5547660501015	43194682.31238553
1445.9729217920194	43183222.837271824
1472.882723907502	43171550.09937635
1500.2933220192183	43159660.12984245
1528.2140360258693	43147548.88595238
1556.654359271062	43135212.249752715
1585.6239617711371	43122654.098022595
1615.132693503091	43110179.93908023
1645.1905877536624	43097473.6339174
1675.807864530767	43084530.86225343
1706.9949340384078	43071347.2234065
1738.7624002162504	43057918.23479736
1771.1210643450886	43044239.33042517
1804.0819287193826	43030305.859315075
1837.6562003881704	43016113.08393676
1871.8552949655793	43001656.178593665
1906.690840512252	42986930.22778221
1942.1746814890264	42971930.224520445
1978.3188827841643	42956651.068645634
2015.1357338155585	42941336.12049663
2052.6377527092523	42925952.012410395
2090.8376905557498	42910281.603454985
2129.748535745521	42894319.56552249
2169.3835183851843	42878060.47134804
2209.756114795903	42861498.79266442
2250.880052095462	42844628.89832244
2292.7693128656488	42827445.05237623
2335.438139906479	42809941.41213303
2378.9010410788933	42792112.02616656
2423.1727942376006	42773950.83229347
2468.2684522556924	42755451.65551218
2514.2033481427966	42736640.800206654
2560.9931002584594	42718104.90698705
2608.6536176225477	42699224.05764063
2657.2011053245064	42679991.83247519
2706.652070033241	42660401.69232695
2757.0233256095826	42640446.97633716
2808.3319988231724	42620120.89968739
2860.5955351757416	42599416.55129256
2913.831704832789	42578326.891451135
2968.0586086656026	42556844.74945154
3023.2946844057765	42534962.82113401
3079.5587129142264	42512673.666407146
3136.8698245668766	42489969.706718184
3195.2475057592133	42467360.18264985
3254.711605531848	42444735.69504614
3315.282342319423	42421690.16187844
3376.9803108250912	42398215.74741715
3439.8264890229243	42374304.47010843
3503.8422452906757	42349948.199860334
3569.0493456752292	42325138.65527857
3635.4699612933177	42299867.400850646
3703.126675869927	42274125.84407775
3772.0424934169973	42247905.23255324
3842.240846055061	42221196.650986664
3913.745601980384	42193991.01817251
3986.581073580439	42166374.42931474
4060.7720257003657	42139430.72478037
4136.343684063274	42111985.59331999
4213.321743847289	42084029.70329318
4291.732378422157	42055553.549396105
4371.602248248501	42026547.449429624
4452.958509942655	41997001.5410072
4535.828825510186	41966905.778201625
4620.241371751313	41936249.92812926
4706.224849841281	41905023.567470774
4793.808495089106	41873216.078927085
4883.02208687788	41840816.64760936
4973.895958790063	41807814.25736186
5066.461008921268	41775229.35664474
5160.7487103859075	41742769.116667345
5256.791122018419	41709704.78610067
5354.620899273607	41676025.12271605
5454.271305329836	41641718.67506504
5555.7762223988775	41606773.77858581
5659.170163246242	41571178.55163701
5764.488282925873	41534920.89145796
5871.766390733255	41497988.47005351
5981.040962380945	41460368.730002455
6092.349152400711	41422048.88018783
6205.7288067765	41383015.891447805
6321.218475812449	41343494.04599045
6438.8574272404185	41305394.50275495
6558.685659571435	41266585.920536965
6680.743915695614	41227055.1040004
6805.073696735206	41186788.61224168
6931.717276155407	41145772.75421974
7060.717714137772	41103993.584100924
7192.118872221193	41061436.896517225
7325.96542821523	41018088.22173631
7462.302891391108	40973932.8207417
7601.17761795533	40928955.68022125
7742.636826811269	40883141.50746261
7886.728615614156	40836474.725153364
8033.501977124735	40790901.19650051
8183.00681586739	40745732.12284102
8335.293965098195	40699722.445034936
8490.415204088747	40652856.519296065
8648.423275731726	40605118.41070467
8809.37190447399	40556491.88778947
8973.31581458352	40506960.41700872
9140.310748756232	40456507.15712866
9310.413487069076	40405114.95349732
9483.681866285926	40352766.3322117
9660.174799522645	40299443.49417654
9839.952296278227	40245128.30905233
10023.075482838643	40190329.902380966
10209.606623060476	40138239.08735967
10399.609139541202	40085178.853407264
10593.1476351837	40031131.159472495
10790.287915161836	39976077.62875706
10991.097009294961	39919999.542467326
11195.643194838794	39862877.83344971
11403.99601970033	39804693.079707675
11616.22632608502	39745425.497798026
11832.40627458378	39685054.936104305
12052.609368708414	39623560.86798505
12276.910479883603	39560922.3847945
12505.385872903913	39497118.18877348
12738.113231864783	39435653.61805474
12975.171686575868	39375069.31595763
13216.641839466038	39313357.52968971
13462.60579298911	39250497.2765787
13713.147177539455	39186467.183461264
13968.351179887397	39121245.479415804
14228.30457214352	39054809.988360204
14493.09574126215	38987138.12151165
14762.81471909391	38918206.86970627
15037.553212997384	38847992.79557574
15317.404637020798	38776472.02557829
15602.46414366368	38703620.241881505
15892.828656229764	38630473.91975561
16188.596901781993	38562035.81399786
16489.86944471065	38492324.06344682
16796.74872092653	38421314.965356156
17109.339072690134	38348984.3758674
17427.746784089173	38275307.70180077
17752.08011717636	38200259.89229324
18082.44934877952	38123815.43028094
18418.96680799711	38045948.32382311
18761.746914391195	37966632.09726454
19110.90621689136	37885839.7822336
19466.56343342263	37803543.90847262
19828.83949127071	37719716.49449783
20197.857568198782	37640280.150333285
20573.743134329114	37562425.24521607
20956.623994804308	37483121.44706714
21346.630333242454	37402341.79174064
21743.8947560008	37320058.81328338
22148.55233726359	37236244.534596086
22560.74066496859	37150870.45792092
22980.599887588487	37063907.555151924
23408.272761782944	36975326.25796513
23843.904700937208	36885096.44776506
24287.643824604504	36793187.44544403
24739.64100886812	36699568.00095093
25200.049937640895	36606150.08786508
25669.027154919517	36520242.263183996
26146.732118010917	36432735.679267876
26633.327251749808	36343600.58293531
27128.978003724646	36252806.667293124
27633.852900531667	36160323.06143172
28148.123605075813	36066118.31992857
28671.964974937695	35970160.41215657
29205.55512182745	35872416.71139312
29749.075472144435	35772853.98372677
30302.71082866393	35671438.37675738
30866.649433372742	35568135.4080858
31441.08303147265	35462909.95358963
32026.206936576502	35365087.82826564
32622.220097116733	35269739.876237206
33229.325163989684	35172617.48259754
33847.72855945983	35073687.62468625
34477.640547344636	34972916.66528574
35119.275304507275	34870270.341184005
35772.850993678774	34765713.75152483
36438.58983763541	34659211.34594121
37116.71819475767	34550726.91246762
37807.466635993485	34440223.56522784
38511.070023255685	34327663.73189311
39227.76758927723	34213009.14090728
39957.803018952654	34099468.251029894
40701.42453219439	33996924.546248496
41458.88496832911	33892472.48567271
42230.441872066716	33786076.55447648
43016.35758106799	33677700.57689676
43816.89931514194	33567307.70393347
44632.33926710397	33454860.400820322
45462.95469532399	33340320.434262667
46309.02801799736	33223648.85943771
47170.84690917023	33104806.006752886
48048.704396551344	32983751.468357787
48942.89896114532	32860444.084405
49853.73463873894	32734841.929055367
50781.5211232767	32620565.44001336
51726.57387216024	32509726.476327468
52689.21421350677	32396824.780667488
53669.76945540476	32281821.965240374
54668.57299720181	32164678.927849747
55685.96444286408	32045355.838600688
56722.28971644549	31923812.126357157
57777.90117970507	31800006.464947402
58853.1577519145	31673896.759112533
59948.42503189408	31545440.130193762
61064.07542232036	31414592.901553147
62200.48825634718	31281310.583723076
63358.04992658254	31150501.073864073
64537.15401646702	31034476.402228784
65738.20143409586	30916292.49171207
66961.60054853215	30795909.158510946
68207.76732865692	30673285.470994994
69477.1254846024	30548379.735789225
70770.10661181889	30421149.483597822
72087.15033782135	30291551.454764146
73428.70447166759	30159541.584562004
74795.22515621828	30025074.988213114
76187.17702322999	29888105.945625886
77605.0333513357	29748587.885850016
79049.2762269642	29606473.371241882
80520.39670825469	29480166.927441347
82018.8949920221	29358138.651161656
83545.28058382872	29233839.407896575
85100.07247122246	29107226.93456407
86683.79930019773	28978258.181558974
88296.99955494082	28846889.298115656
89940.22174092053	28713075.61739824
91614.0245713852	28576771.641313493
93318.9771573324	28437931.025040865
95055.65920101192	28296506.56127485
96824.66119303115	28152450.16417393
98626.5846131283	28005712.85301089
100462.04213468132	27863155.08046015
102331.65783302448	27738867.48133855
104236.06739764012	27612266.86884902
106175.9183482999	27483310.19741921
108151.87025522892	27351953.62039133
110164.59496336569	27218152.47511387
112214.77682079801	27081861.26775573
114303.11291144785	26943033.65783789
116430.31329208757	26801622.442477137
118597.10123376705	26657579.540336538
120804.21346773289	26510855.975277357
123052.40043592616	26361401.85970653
125342.42654613995	26209166.377614424
127675.07043192645	26077156.32188767
130051.12521734099	25949938.17495282
132471.39878661174	25820352.476656597
134936.71405883064	25688355.166465305
137447.90926775365	25553901.363871217
140005.8382468096	25416945.353132736
142611.37071941295	25277440.567730516
145265.39259467812	25135339.5745344
147968.80626863963	24990594.057675574
150722.53093107554	24843154.802118693
153527.5028780421	24692971.676928222
156384.67583022476	24539993.618223384
159295.0212572123	24393017.12610751
162259.5287078087	24266849.485404402
165279.2061464897	24138333.843439613
168355.08029612005	24007426.503510185
171488.19698705408	23874082.955709975
174679.62151272455	23738257.861796014
177930.43899185772	23599905.03977287
181241.75473742394	23458977.44819029
184614.69463245454	23315427.170148723
188050.40551285836	23169205.397006832
191550.0555573528	23020262.411786277
195114.83468466165	22868547.57226723
198745.9549580986	22714009.29376953
202444.65099768018	22583318.195742205
206212.18039991445	22457472.6513035
210049.8241653915	22329285.09986944
213958.88713434213	22198711.956291314
217940.6984302958	22065708.82429338
221996.61191199525	21930230.481377717
226128.00663372793	21792230.863447916
230336.2873142131	21651663.049146995
234622.88481422624	21508479.24390348
238989.25662310526	21362630.76368079
243436.8873543108	21214068.018424194
247967.289250216	21062740.495199505
252582.00269627848	20919050.54699842
257282.59674479323	20797304.779391978
262070.66964838552	20673293.3023346
266947.8494034318	20546973.950587917
271915.7943036019	20418303.774211206
276976.1935036891	20287239.023958143
282130.76759394706	20153735.136401415
287381.2691851069	20017746.71878076
292729.4835042813	19879227.53356897
298177.22900196735	19738130.482750494
303726.3579703311	19594407.591807798
309378.75717301364	19448009.993409343
315136.34848664823	19298887.91079425
321001.08955431683	19175848.84073103
326974.97445117676	19057241.199932437
333060.03436245886	18936426.250756804
339258.33827409917	18813362.91481962
345571.9936762143	18688009.349260673
352003.1472796675	18560322.932517044
358553.9857459817	18430260.249831177
365226.7364308175	18297777.078489605
372023.6681413066	18162828.372786555
378947.09190746717	18025368.248708032
385999.36176797637	17885349.968330774
393182.87557057705	17742725.92393072
400500.07578736113	17608923.090779766
407953.45034524484	17496684.708396826
415545.53347188793	17382357.550619695
423278.90655735444	17265902.74498291
431156.19903182285	17147280.695597712
439180.0892596086	17026451.069689225
447353.3054498463	16903372.783882696
455678.6265841068	16778003.99023479
464158.8833612772	16650302.06200487
472796.9591600391	16520223.57916132
481595.79101923504	16387724.313618433
490558.37063650455	16252759.214198252
499687.7453854889	16115282.391312728
508987.0193519675	16004483.675688937
518459.3543892913	15897348.234478202
528107.971193433	15788218.984476814
537936.1503980698	15677058.820563905
547947.2336900292	15563829.947085997
558144.6249454955	15448493.86500612
568531.7913873753	15331011.35881359
579112.2647641759	15211342.483190477
589889.6425508494	15089446.549429646
600867.5891719692	14965282.111600189
612049.837247669	14838806.952455435
623440.1888627863	14709978.069078462
635042.5168595961	14590558.650910355
646860.7661546321	14491047.273734653
658898.9550799957	14389683.972897248
671161.1767496272	14286434.283783711
683651.6004510238	14181263.100387195
696374.4730628222	14074134.663372176
709334.1204987989	13965012.547915766
722534.9491787221	13853859.651322916
735981.4475265755	13740638.18041117
749678.1874966878	13625309.638660422
763629.8261282243	13507834.813123861
777841.1071286482	13388173.761095028
792316.8624866261	13266285.79652688
807062.0141149492	13170156.451259593
822081.575524054	13076747.529511744
837380.6535266489	12981600.251836093
852964.4499741016	12884682.26713302
868838.2635251193	12785960.622243436
885007.4914473438	12685401.750744393
901477.6314524917	12582971.46153606
918254.2835656281	12478634.927216433
935343.1520292377	12372356.672239631
952750.0472427299	12264100.56085382
970480.8877380306	12153829.784814706
988541.7021919573	12041506.850870276
1006938.6314760271	11938594.329574848
1025677.9307444209	11853112.13028276
1044765.9715608053	11766039.092716526
1064209.2440647245	11677345.611105198
1084014.359178331	11587001.528709358
1104188.0508541602	11494976.127567546
1124737.1783647507	11401238.118051812
1145668.7286348727	11305755.628228897
1166989.8186171474	11208496.193023475
1188707.6977119034	11109426.743179603
1210829.7502320393	11008513.594016878
1233363.4979137746	10905722.433977261
1256316.6024741214	10801018.312958764
1279696.8682159416	10720036.776572552
1303512.2446815087	10640832.350355137
1327770.829355429	10560153.91628871
1352480.8704178738	10477974.042836387
1377650.769549055	10394264.78795571
1403289.084785873	10308997.689598083
1429404.533431761	10222143.756031318
1456005.9950206485	10133673.455982156
1483102.514336103	10043556.70859533
1510703.3044866556	9951762.873205723
1538817.7500383465	9858260.738920255
1567455.410205595	9763018.514005788
1596626.022101425	9676722.38080889
1626339.5040481905	9605047.06686963
1656605.9589499151	9532037.863141969
1687435.6777273756	9457669.94570999
1718839.1428171454	9381918.02868046
1750827.0317357269	9304756.355585359
1783410.220710006	9226158.690624455
1816599.7883753285	9146098.30974475
1850407.019542302	9064547.99155413
1884843.4090337954	8981480.008065706
1919920.6655932867	8896866.11527004
1955650.715865947	8810677.54353191
1992045.7084538713	8722884.98780821
2029118.0180466783	8656150.408827208
2066880.2496290822	8590369.939543085
2105345.242766708	8523365.284532636
2144526.0759716653	8455113.661491215
2184436.0711494284	8385591.864131556
2225088.7981283693	8314776.254293493
2266498.079273693	8242642.753906644
2308677.994187172	8169166.836803641
2351642.884494346	8094323.520381002
2395407.358720879	8018087.357104683
2439986.29725955	7940432.425857762
2485394.857429798	7861332.323126886
2531648.478631358	7790416.271253096
2578762.8875937983	7731365.647182205
2626754.1037238385	7671216.080949524
2675638.4445520453	7609947.121054453
2725432.531281028	7547537.935390455
2776153.2944368036	7483967.304161946
2827817.979625338	7419213.612669367
2880444.1533962977	7353254.843959869
2934049.709215787	7286068.571341416
2988652.873550383	7217631.950757386
3044272.2120643063	7147921.713019381
3100926.6359319235	7076914.155895475
3158635.408267819	7004585.1360511165
3217418.1506763715	6950446.386805587
3277294.849923382	6896614.574875578
3338285.8647317644	6841780.943765741
3400411.9327037027	6785926.849450692
3463694.1773717343	6729033.300936518
3528154.1153808828	6671080.953803726
3593813.6638046256	6612050.1036298545
3660695.147596906	6551920.679289788
3728821.30718283	6490672.236131386
3798215.306190736	6428283.949024004
3868900.7393279755	6364734.60527782
3940901.6404034477	6300002.597431218
4014242.490499326	6242549.646067342
4088948.226294856	6194492.546124022
4165044.248545185	6145541.095373545
4242556.430717777	6095678.649795226
4321511.127789762	6044888.2556203
4401935.1852088785	5993152.643567484
4483855.948021181	5940454.222971253
4567301.270168747	5886775.075800764
4652299.523960189	5832096.950567611
4738879.609717651	5776401.256120058
4827070.965603188	5719669.055321875
4916903.577628021	5661881.058613528
5008407.989848212	5603017.617453452
5101615.314749833	5559566.384040589
5196557.243827657	5515955.620865779
5293266.058360566	5471533.253967647
5391774.640387494	5426284.179262822
5492116.483887789	5380193.011578328
5594325.706169377	5333244.079420543
5698437.0594691355	5285421.419646661
5804485.942768984	5236708.772037069
5912508.413831869	5187089.573766727
6022541.201461928	5136546.953773559
6134621.717992506	5085063.727022195
6248788.072006888	5032622.388660809
6365079.081295578	4986525.930607267
6483534.286054714	4947737.993915745
6604193.962330305	4908228.207122386
6727099.135712336	4867983.136473982
6852291.595284057	4826989.098212871
6979813.907830667	4785232.153924335
7109709.432312423	4742698.105797405
7242022.334607315	4699372.4917974025
7376797.60252773	4655240.580748752
7514081.061116962	4610287.367326178
7653919.388230155	4564497.566952745
7796360.130405221	4517855.6106029665
7941451.71902934	4470345.6395091
8089243.486805938	4435721.174671225
8239785.684528512	4400628.254568884
8393129.498166373	4364882.249252164
8549327.066268368	4328471.004694112
8708431.497690724	4291382.140679235
8870496.889654402	4253603.046594153
9035578.34613892	4215120.87713981
9203731.99661823	4175922.547963945
9375015.01514529	4135994.7312122923
9549485.639791967	4095323.850996935
9727203.192450536	4053896.0787803764
9908228.099003786	4011697.328673685
10092621.909870483	3974950.4808091572
10280447.320933098	3943814.766413668
10471768.194855202	3912099.6110753515
10666649.582795387	3879794.2312996653
10865157.746525371	3846887.6429094
11067360.180959744	3813368.6573099364
11273325.63710487	3779225.8776850137
11483124.14543511	3744447.695121674
11696827.039703846	3709022.2846631147
11914506.981197748	3672937.601288076
12136237.983442418	3636181.3758154
12362095.437367693	3598741.1107323896
12592156.13694151	3560743.348786335
12826498.3052806	3533142.9880621484
13065201.621247198	3505028.9799285196
13308347.24654076	3476391.7653197525
13556017.853293689	3447221.6072743274
13808297.652180923	3417508.5876242
14065272.421052363	3387242.603622536
14327029.534098294	3356413.3645086633
14593657.991557576	3325010.3880090984
14865248.449978571	3293022.996773476
15141893.25304352	3260440.3147441125
15423686.462966273	3227251.2634580457
15710723.892474487	3193444.558280228
16003103.137387017	3164274.726297427
16300923.609797413	3139370.659270185
16604286.571875297	3114003.1233179905
16913295.17029647	3088163.4932052875
17228054.471313924	3061842.9831794198
17548671.49648152	3035032.6439833757
17875255.259042352	3007723.359812957
18207916.800994623	2979905.845217288
18546769.230846975	2951570.641941678
18891927.762076646	2922708.1157117044
19243509.75230332	2893308.4529574565
19601634.743191857	2863361.657476827
19966424.501097932	2833192.7125247847
20338003.0584698	2811144.659268667
20716496.75602067	2788686.2879898446
21102034.285685964	2765809.9626000947
21494746.734379806	2742507.904902301
21894767.628566206	2718772.191945767
