# Frequency (Hz)	Imaginary Part (Ohm/m)
1000.0	72515381.11423042
1018.6101701559753	72409376.71058518
1037.566678745186	72301399.5469508
1056.875971184804	72191412.90992826
1076.5446128423157	72079379.40287583
1096.5792912678098	71965260.93319398
1116.9868184678226	71849018.69937344
1137.7741332214914	71730613.17780213
1158.9483034398106	71610004.10932703
1180.5165285688054	71487150.48556522
1202.4861420374123	71362010.53496096
1224.8646137509306	71234541.7085826
1247.6595526308697	71104700.66565578
1270.8787092020582	70983214.20252483
1294.529978227916	70869807.2766649
1318.6214013947485	70754289.82861787
1343.1611700460153	70636622.5812067
1368.1576279674719	70516765.52629939
1393.619274224142	70394677.91120587
1419.5547660501015	70270318.22482154
1445.9729217920194	70143644.18351306
1472.882723907502	70014612.71674146
1500.2933220192183	69883179.95241778
1528.2140360258693	69749301.20198596
1556.654359271062	69612930.94522832
1585.6239617711371	69474601.86413008
1615.132693503091	69356490.77498429
1645.1905877536624	69236181.61837216
1675.807864530767	69113633.48788418
1706.9949340384078	68988804.71583553
1738.7624002162504	68861652.85909866
1771.1210643450886	68732134.68467227
1804.0819287193826	68600206.15498154
1837.6562003881704	68465822.41290481
1871.8552949655793	68328937.76652184
1906.690840512252	68189505.67357796
1942.1746814890264	68047478.72565919
1978.3188827841643	67902808.63207293
2015.1357338155585	67769105.1942036
2052.6377527092523	67644775.43796158
2090.8376905557498	67518131.88380043
2129.748535745521	67389131.47154722
2169.3835183851843	67257730.33967178
2209.756114795903	67123883.81037343
2250.880052095462	66987546.37439005
2292.7693128656488	66848671.6755244
2335.438139906479	66707212.494882494
2378.9010410788933	66563120.734818734
2423.1727942376006	66416347.4025821
2468.2684522556924	66266842.59365818
2514.2033481427966	66115918.4644658
2560.9931002584594	65988322.59163012
2608.6536176225477	65858352.137889765
2657.2011053245064	65725962.91189006
2706.652070033241	65591109.89986771
2757.0233256095826	65453747.25034555
2808.3319988231724	65313828.25854272
2860.5955351757416	65171305.35049437
2913.831704832789	65026130.06687611
2968.0586086656026	64878253.046527304
3023.2946844057765	64727624.009667635
3079.5587129142264	64574191.74080157
3136.8698245668766	64417904.071304485
3195.2475057592133	64275099.12956996
3254.711605531848	64142503.38603148
3315.282342319423	64007440.01314376
3376.9803108250912	63869863.08790479
3439.8264890229243	63729725.83267758
3503.8422452906757	63586980.59928539
3569.0493456752292	63441578.85281084
3635.4699612933177	63293471.1550934
3703.126675869927	63142607.14792002
3772.0424934169973	62988935.53590276
3842.240846055061	62832404.06903768
3913.745601980384	62672959.52493951
3986.581073580439	62512835.26624057
4060.7720257003657	62378206.18498948
4136.343684063274	62241071.63362837
4213.321743847289	62101384.984932154
4291.732378422157	61959098.7439352
4371.602248248501	61814164.531782426
4452.958509942655	61666533.06928007
4535.828825510186	61516154.16014018
4620.241371751313	61362976.67391331
4706.224849841281	61206948.528603695
4793.808495089106	61048016.67296077
4883.02208687788	60886127.0684411
4973.895958790063	60721224.67083484
5066.461008921268	60571983.44297736
5160.7487103859075	60433237.45880728
5256.791122018419	60291909.38826335
5354.620899273607	60147951.178278774
5454.271305329836	60001313.88151103
5555.7762223988775	59851947.639699236
5659.170163246242	59699801.66671176
5764.488282925873	59544824.23127846
5871.766390733255	59386962.639401376
5981.040962380945	59226163.21643839
6092.349152400711	59062371.28885309
6205.7288067765	58895531.16562523
6321.218475812449	58728857.87721309
6438.8574272404185	58588801.64762576
6558.685659571435	58446138.94777438
6680.743915695614	58300821.27080388
6805.073696735206	58152799.20713829
6931.717276155407	58002022.42768103
7060.717714137772	57848439.6667025
7192.118872221193	57691998.70440917
7325.96542821523	57532646.34918815
7462.302891391108	57370328.41952174
7601.17761795533	57204989.725564845
7742.636826811269	57036574.05038008
7886.728615614156	56865024.13082317
8033.501977124735	56710887.31554548
8183.00681586739	56567038.936135605
8335.293965098195	56420513.51390824
8490.415204088747	56271261.22864106
8648.423275731726	56119231.3329489
8809.37190447399	55964372.13502911
8973.31581458352	55806630.9810858
9140.310748756232	55645954.237427
9310.413487069076	55482287.272228636
9483.681866285926	55315574.436958976
9660.174799522645	55145759.0474578
9839.952296278227	54972783.364662886
10023.075482838643	54800850.86579533
10209.606623060476	54655831.37659478
10399.609139541202	54508113.05002427
10593.1476351837	54357645.66026116
10790.287915161836	54204378.04677161
10991.097009294961	54048258.09691564
11195.643194838794	53889232.72822806
11403.99601970033	53727247.87037011
11616.22632608502	53562248.44674476
11832.40627458378	53394178.355770074
12052.609368708414	53222980.45180424
12276.910479883603	53048596.525715224
12505.385872903913	52870967.28508926
12738.113231864783	52712205.717479736
12975.171686575868	52563214.692097
13216.641839466038	52411450.91838015
13462.60579298911	52256862.79501092
13713.147177539455	52099397.7603617
13968.351179887397	51939002.27462405
14228.30457214352	51775621.801604584
14493.09574126215	51609200.79018205
14762.81471909391	51439682.65541939
15037.553212997384	51267009.75932429
15317.404637020798	51091123.39125154
15602.46414366368	50911963.747940846
15892.828656229764	50734739.91900851
16188.596901781993	50584358.16999257
16489.86944471065	50431177.79103914
16796.74872092653	50275146.69916882
17109.339072690134	50116211.84212916
17427.746784089173	49954319.180356294
17752.08011717636	49789413.668600805
18082.44934877952	49621439.237211905
18418.96680799711	49450338.773073
18761.746914391195	49276054.10018271
19110.90621689136	49098525.95987437
19466.56343342263	48917693.99066736
19828.83949127071	48733496.70774381
20197.857568198782	48569636.68471931
20573.743134329114	48414946.072015956
20956.623994804308	48257376.640688665
21346.630333242454	48096874.81543296
21743.8947560008	47933386.02389892
22148.55233726359	47766854.67813586
22560.74066496859	47597224.15569181
22980.599887588487	47424436.78036145
23408.272761782944	47248433.80257537
23843.904700937208	47069155.37942476
24287.643824604504	46886540.55431399
24739.64100886812	46700527.23623493
25200.049937640895	46517422.502739154
25669.027154919517	46361220.11682858
26146.732118010917	46202110.77793746
26633.327251749808	46040040.387176156
27128.978003724646	45874953.83886555
27633.852900531667	45706795.00180042
28148.123605075813	45535506.70016424
28671.964974937695	45361030.694088936
29205.55512182745	45183307.65985242
29749.075472144435	45002277.169708095
30302.71082866393	44817877.67133882
30866.649433372742	44630046.46692817
31441.08303147265	44438719.69184284
32026.206936576502	44269565.23633689
32622.220097116733	44109067.855146855
33229.325163989684	43945583.590383336
33847.72855945983	43779056.855634704
34477.640547344636	43609431.03001691
35119.275304507275	43436648.4389215
35772.850993678774	43260650.334405795
36438.58983763541	43081376.87521799
37116.71819475767	42898767.10645017
37807.466635993485	42712758.938813515
38511.070023255685	42523289.1275267
39227.76758927723	42330293.2508124
39957.803018952654	42141362.135959424
40701.42453219439	41979824.70919255
41458.88496832911	41815281.04342701
42230.441872066716	41647675.192043476
43016.35758106799	41476950.167246535
43816.89931514194	41303047.92068826
44632.33926710397	41125909.32373102
45462.95469532399	40945474.14734322
46309.02801799736	40761681.041620724
47170.84690917023	40574467.51492722
48048.704396551344	40383769.91264647
48942.89896114532	40189523.39553893
49853.73463873894	39991661.91769582
50781.5211232767	39818359.574568726
51726.57387216024	39653333.16768863
52689.21421350677	39485235.591296285
53669.76945540476	39314009.69040445
54668.57299720181	39139597.24636195
55685.96444286408	38961938.957058474
56722.28971644549	38780974.41676142
57777.90117970507	38596642.095577255
58853.1577519145	38408879.31853063
59948.42503189408	38217622.2442542
61064.07542232036	38022805.84328194
62200.48825634718	37824363.87593839
63358.04992658254	37631390.94289971
64537.15401646702	37466677.54165858
65738.20143409586	37298898.79599337
66961.60054853215	37127997.65932279
68207.76732865692	36953916.02341889
69477.1254846024	36776594.698649816
70770.10661181889	36595973.3938545
72087.15033782135	36411990.695843145
73428.70447166759	36224584.04851605
74795.22515621828	36033689.73159382
76187.17702322999	35839242.83895188
77605.0333513357	35641177.256551564
79049.2762269642	35439425.639960736
80520.39670825469	35265037.63470446
82018.8949920221	35098582.73763426
83545.28058382872	34929030.086606294
85100.07247122246	34756322.031892315
86683.79930019773	34580399.8508928
88296.99955494082	34401203.72817067
89940.22174092053	34218672.73511338
91614.0245713852	34032744.80921657
93318.9771573324	33843356.732982054
95055.65920101192	33650444.11242332
96824.66119303115	33453941.35517076
98626.5846131283	33253781.64816958
100462.04213468132	33060695.7397114
102331.65783302448	32896713.177265286
104236.06739764012	32729678.871429432
106175.9183482999	32559536.02874009
108151.87025522892	32386226.79879746
110164.59496336569	32209692.25459601
112214.77682079801	32029872.37248857
114303.11291144785	31846706.011777677
116430.31329208757	31660130.893927112
118597.10123376705	31470083.58138645
120804.21346773289	31276499.456021745
123052.40043592616	31079312.697144497
125342.42654613995	30878456.259132046
127675.07043192645	30707721.526519388
130051.12521734099	30544453.4481193
132471.39878661174	30378146.922999177
134936.71405883064	30208745.40514851
137447.90926775365	30036191.29622596
140005.8382468096	29860425.925975256
142611.37071941295	29681389.532276634
145265.39259467812	29499021.240827188
147968.80626863963	29313259.04444282
150722.53093107554	29124039.781975184
153527.5028780421	28931299.116836235
156384.67583022476	28734971.51512306
159295.0212572123	28547343.006107837
162259.5287078087	28389090.958042994
165279.2061464897	28227893.812436104
168355.08029612005	28063696.760520857
171488.19698705408	27896443.973530307
174679.62151272455	27726078.583714828
177930.43899185772	27552542.665006198
181241.75473742394	27375777.2133222
184614.69463245454	27195722.12650471
188050.40551285836	27012316.18388406
191550.0555573528	26825497.02546363
195114.83468466165	26635201.130716614
198745.9549580986	26441363.796988342
202444.65099768018	26279729.67015656
206212.18039991445	26124840.084490187
210049.8241653915	25967067.977279197
213958.88713434213	25806359.704307146
217940.6984302958	25642660.623029582
221996.61191199525	25475915.07399512
226128.00663372793	25306066.36192033
230336.2873142131	25133056.736413073
234622.88481422624	24956827.37233651
238989.25662310526	24777318.349807978
243436.8873543108	24594468.633825693
247967.289250216	24408216.053515974
252582.00269627848	24232050.609825417
257282.59674479323	24084524.218649577
262070.66964838552	23934252.33623144
266947.8494034318	23781183.868511878
271915.7943036019	23625266.7705625
276976.1935036891	23466448.028890084
282130.76759394706	23304673.643411182
287381.2691851069	23139888.609091617
292729.4835042813	22972036.897244245
298177.22900196735	22801061.436478388
303726.3579703311	22626904.0932952
309378.75717301364	22449505.652321458
315136.34848664823	22268805.796175767
321001.08955431683	22121173.632352322
326974.97445117676	21979278.850647468
333060.03436245886	21834743.382910877
339258.33827409917	21687518.08552613
345571.9936762143	21537552.90030577
352003.1472796675	21384796.837471016
358553.9857459817	21229197.95831452
365226.7364308175	21070703.357540864
372023.6681413066	20909259.145278
378947.09190746717	20744810.42875421
385999.36176797637	20577301.293634016
393182.87557057705	20406674.785006527
400500.07578736113	20247051.637993675
407953.45034524484	20114178.96028588
415545.53347188793	19978833.49943686
423278.90655735444	19840969.23653163
431156.19903182285	19700539.296235267
439180.0892596086	19557495.930855025
447353.3054498463	19411790.504105356
455678.6265841068	19263373.474571224
464158.8833612772	19112194.37886344
472796.9591600391	18958201.81446048
481595.79101923504	18801343.422231242
490558.37063650455	18641565.868632223
499687.7453854889	18478814.82757361
508987.0193519675	18348539.109358396
518459.3543892913	18222791.543836664
528107.971193433	18094703.794723883
537936.1503980698	17964232.31080522
547947.2336900292	17831332.730370313
558144.6249454955	17695959.86612988
568531.7913873753	17558067.689851407
579112.2647641759	17417609.316709228
589889.6425508494	17274536.98934304
600867.5891719692	17128802.061619937
612049.837247669	16980354.982094277
623440.1888627863	16829145.27715945
635042.5168595961	16689261.286026381
646860.7661546321	16573276.89840518
658898.9550799957	16455134.021594897
671161.1767496272	16334792.485744493
683651.6004510238	16212211.373435047
696374.4730628222	16087349.005767632
709334.1204987989	15960162.928191846
722534.9491787221	15830609.896070888
735981.4475265755	15698645.859977966
749678.1874966878	15564225.950718854
763629.8261282243	15427304.464076098
777841.1071286482	15287834.84526891
792316.8624866261	15145769.67312412
807062.0141149492	15034250.959503256
822081.575524054	14925997.02756621
837380.6535266489	14815728.471535772
852964.4499741016	14703407.798914755
868838.2635251193	14588996.819464214
885007.4914473438	14472456.6322184
901477.6314524917	14353747.612257931
918254.2835656281	14232829.397236956
935343.1520292377	14109660.873659473
952750.0472427299	13984200.162900342
970480.8877380306	13856404.606966108
988541.7021919573	13726230.753990762
1006938.6314760271	13607131.732574575
1025677.9307444209	13508520.346029202
1044765.9715608053	13408073.784800893
1064209.2440647245	13305757.89597655
1084014.359178331	13201537.891051529
1104188.0508541602	13095378.3341012
1124737.1783647507	12987243.129732342
1145668.7286348727	12877095.51081031
1166989.8186171474	12764898.025957882
1188707.6977119034	12650612.526821276
1210829.7502320393	12534200.155099377
1233363.4979137746	12415621.329331476
1256316.6024741214	12294835.731439123
1279696.8682159416	12201713.069370389
1303512.2446815087	12110683.958262324
1327770.829355429	12017960.779907385
1352480.8704178738	11923512.007425861
1377650.769549055	11827305.527217424
1403289.084785873	11729308.628042206
1429404.533431761	11629487.989898581
1456005.9950206485	11527809.672694027
1483102.514336103	11424239.104705123
1510703.3044866556	11318741.070822781
1538817.7500383465	11211279.700578777
1567455.410205595	11101818.455949346
1596626.022101425	11002736.663497087
1626339.5040481905	10920608.312149765
1656605.9589499151	10836951.538209235
1687435.6777273756	10751737.897470979
1718839.1428171454	10664938.416378975
1750827.0317357269	10576523.582174387
1783410.220710006	10486463.33286096
1816599.7883753285	10394727.0469835
1850407.019542302	10301283.533216394
1884843.4090337954	10206101.019758109
1919920.6655932867	10109147.14352848
1955650.715865947	10010388.93916496
1992045.7084538713	9909792.827813916
2029118.0180466783	9833489.415639991
2066880.2496290822	9758298.14289507
2105345.242766708	9681707.547770109
2144526.0759716653	9603691.588637544
2184436.0711494284	9524223.739230625
2225088.7981283693	9443276.979624324
2266498.079273693	9360823.78704817
2308677.994187172	9276836.126528263
2351642.884494346	9191285.441355096
2395407.358720879	9104142.643373879
2439986.29725955	9015378.103094375
2485394.857429798	8924961.639616448
2531648.478631358	8843955.08303298
2578762.8875937983	8776587.612367118
2626754.1037238385	8707966.421609167
2675638.4445520453	8638068.178814912
2725432.531281028	8566869.11782866
2776153.2944368036	8494345.030202495
2827817.979625338	8420471.256965218
2880444.1533962977	8345222.680237913
2934049.709215787	8268573.714693729
2988652.873550383	8190498.298858483
3044272.2120643063	8110969.886249541
3100926.6359319235	8029961.43634973
3158635.408267819	7947445.405413191
3217418.1506763715	7885770.023834194
3277294.849923382	7824452.403517703
3338285.8647317644	7761993.651853555
3400411.9327037027	7698372.532193221
3463694.1773717343	7633567.412670479
3528154.1153808828	7567556.258846449
3593813.6638046256	7500316.626217563
3660695.147596906	7431825.652584219
3728821.30718283	7362060.050277427
3798215.306190736	7290996.098240653
3868900.7393279755	7218609.63396453
3940901.6404034477	7144876.0452712355
4014242.490499326	7079464.172950402
4088948.226294856	7024792.847373825
4165044.248545185	6969104.079125604
4242556.430717777	6912378.933424513
4321511.127789762	6854598.123109805
4401935.1852088785	6795742.002083381
4483855.948021181	6735790.558629949
4567301.270168747	6674723.408612737
4652299.523960189	6612519.7885427745
4738879.609717651	6549158.54851899
4827070.965603188	6484618.145037062
4916903.577628021	6418876.633664415
5008407.989848212	6351911.661578799
5101615.314749833	6302527.174439551
5196557.243827657	6252963.926968327
5293266.058360566	6202478.299028175
5391774.640387494	6151053.124961636
5492116.483887789	6098670.919655406
5594325.706169377	6045313.872595288
5698437.0594691355	5990963.8418103615
5804485.942768984	5935602.34770454
5912508.413831869	5879210.56677333
6022541.201461928	5821769.32520358
6134621.717992506	5763259.092354252
6248788.072006888	5703659.974115733
6365079.081295578	5651288.350137397
6483534.286054714	5607241.615383633
6604193.962330305	5562375.163401275
6727099.135712336	5516673.739113235
6852291.595284057	5470121.803542824
6979813.907830667	5422703.528530354
7109709.432312423	5374402.791351409
7242022.334607315	5325203.169234893
7376797.60252773	5275087.933779186
7514081.061116962	5224040.045264241
7653919.388230155	5172042.146857923
7796360.130405221	5119076.558714523
7941451.71902934	5065125.27196335
8089243.486805938	5025831.324785884
8239785.684528512	4986006.1896374095
8393129.498166373	4945439.9019473335
8549327.066268368	4904118.66874076
8708431.497690724	4862028.440353147
8870496.889654402	4819154.905653341
9035578.34613892	4775483.487177582
9203731.99661823	4730999.336173031
9375015.01514529	4685687.32754905
9549485.639791967	4639532.054734465
9727203.192450536	4592517.824439205
9908228.099003786	4544628.6513184
10092621.909870483	4502935.520352432
10280447.320933098	4467619.384568186
10471768.194855202	4431646.0094877435
10666649.582795387	4395003.163775969
10865157.746525371	4357678.388470501
11067360.180959744	4319658.992745559
11273325.63710487	4280932.049596953
11483124.14543511	4241484.391446731
11696827.039703846	4201302.60566608
11914506.981197748	4160373.030014877
12136237.983442418	4118681.7479963913
12362095.437367693	4076214.584125524
12592156.13694151	4033115.230806186
12826498.3052806	4001821.997504786
13065201.621247198	3969946.3918069177
13308347.24654076	3937477.575663183
13556017.853293689	3904404.5093262536
13808297.652180923	3870715.947597215
14065272.421052363	3836400.436002088
14327029.534098294	3801446.306897188
14593657.991557576	3765841.675501986
14865248.449978571	3729574.435858183
15141893.25304352	3692632.2567135207
15423686.462966273	3655002.5773290466
15710723.892474487	3616672.6032083086
16003103.137387017	3583604.7139422353
16300923.609797413	3555377.819659647
16604286.571875297	3526625.618071485
16913295.17029647	3497338.3331194073
17228054.471313924	3467506.0068109664
17548671.49648152	3437118.495833773
17875255.259042352	3406165.4681066805
18207916.800994623	3374636.3992667445
18546769.230846975	3342520.5690908376
18891927.762076646	3309807.057850657
19243509.75230332	3276484.7425998934
19601634.743191857	3242542.2933923253
19966424.501097932	3208348.298518277
20338003.0584698	3183365.054309143
20716496.75602067	3157916.86767423
21102034.285685964	3131995.085955878
21494746.734379806	3105590.895469003
21894767.628566206	3078695.318504337
22302232.979659364	3051299.2102759145
22717281.330269028	3023393.255811751
