# Frequency (Hz)	Real Part (Ohm/m)
1000.0	4396125.07992639
1018.6101701559753	4409773.252324393
1037.566678745186	4423675.419533041
1056.875971184804	4437836.308438979
1076.5446128423157	4452260.733897016
1096.5792912678098	4466953.6003672285
1116.9868184678226	4481919.903582532
1137.7741332214914	4497164.732247277
1158.9483034398106	4512693.269767471
1180.5165285688054	4528510.796013192
1202.4861420374123	4544622.68911379
1224.8646137509306	4561034.427286526
1247.6595526308697	4577751.590699213
1270.8787092020582	4592238.999029744
1294.529978227916	4604556.716404822
1318.6214013947485	4617103.66859618
1343.1611700460153	4629884.121702759
1368.1576279674719	4642902.421216322
1393.619274224142	4656162.9934989745
1419.5547660501015	4669670.347288174
1445.9729217920194	4683429.075229744
1472.882723907502	4697443.855439439
1500.2933220192183	4711719.453093534
1528.2140360258693	4726260.722049051
1556.654359271062	4741072.606494114
1585.6239617711371	4756043.282959407
1615.132693503091	4766692.7804461755
1645.1905877536624	4777540.46689325
1675.807864530767	4788590.030630903
1706.9949340384078	4799845.228629862
1738.7624002162504	4811309.887778721
1771.1210643450886	4822987.906185122
1804.0819287193826	4834883.254501149
1837.6562003881704	4846999.977273403
1871.8552949655793	4859342.194318181
1906.690840512252	4871914.102122264
1942.1746814890264	4884719.975269767
1978.3188827841643	4897764.16789554
2015.1357338155585	4908702.485333424
2052.6377527092523	4917804.737861782
2090.8376905557498	4927076.384858495
2129.748535745521	4936520.578783444
2169.3835183851843	4946140.530764323
2209.756114795903	4955939.511688457
2250.880052095462	4965920.853314944
2292.7693128656488	4976087.949407485
2335.438139906479	4986444.256888301
2378.9010410788933	4996993.297013522
2423.1727942376006	5007738.656570457
2468.2684522556924	5018683.989097131
2514.2033481427966	5029634.552261482
2560.9931002584594	5036983.121965448
2608.6536176225477	5044468.4498020075
2657.2011053245064	5052093.08086328
2706.652070033241	5059859.607605979
2757.0233256095826	5067770.670732878
2808.3319988231724	5075828.960090686
2860.5955351757416	5084037.215584608
2913.831704832789	5092398.228109956
2968.0586086656026	5100914.840501076
3023.2946844057765	5109589.948497948
3079.5587129142264	5118426.501730762
3136.8698245668766	5127427.504722833
3195.2475057592133	5134593.208059783
3254.711605531848	5140320.100066715
3315.282342319423	5146153.570508358
3376.9803108250912	5152095.602827521
3439.8264890229243	5158148.217379216
3503.8422452906757	5164313.472117607
3569.0493456752292	5170593.4632957345
3635.4699612933177	5176990.326178264
3703.126675869927	5183506.235767502
3772.0424934169973	5190143.407542917
3842.240846055061	5196904.098214427
3913.745601980384	5203790.606489707
3986.581073580439	5210573.87563548
4060.7720257003657	5214603.000508611
4136.343684063274	5218707.108081211
4213.321743847289	5222887.593794077
4291.732378422157	5227145.8790573925
4371.602248248501	5231483.411734031
4452.958509942655	5235901.66663184
4535.828825510186	5240402.146005088
4620.241371751313	5244986.380065257
4706.224849841281	5249655.927501321
4793.808495089106	5254412.376009719
4883.02208687788	5259257.3428342
4973.895958790063	5264192.475315682
5066.461008921268	5267681.940841062
5160.7487103859075	5270146.82090507
5256.791122018419	5272657.572806482
5354.620899273607	5275215.050228001
5454.271305329836	5277820.122739503
5555.7762223988775	5280473.676093712
5659.170163246242	5283176.612527363
5764.488282925873	5285929.851067965
5871.766390733255	5288734.327846287
5981.040962380945	5291590.996414651
6092.349152400711	5294500.828071153
6205.7288067765	5297464.812189906
6321.218475812449	5300272.328272024
6438.8574272404185	5301209.775958352
6558.685659571435	5302164.669705632
6680.743915695614	5303137.334188031
6805.073696735206	5304128.1001219535
6931.717276155407	5305137.30437849
7060.717714137772	5306165.290097961
7192.118872221193	5307212.406806592
7325.96542821523	5308279.010535343
7462.302891391108	5309365.463940974
7601.17761795533	5310472.136429351
7742.636826811269	5311599.404281045
7886.728615614156	5312747.650779269
8033.501977124735	5312912.640044937
8183.00681586739	5312439.23501919
8335.293965098195	5311957.019845364
8490.415204088747	5311465.830565099
8648.423275731726	5310965.500168751
8809.37190447399	5310455.858538592
8973.31581458352	5309936.732390977
9140.310748756232	5309407.945217423
9310.413487069076	5308869.317224594
9483.681866285926	5308320.665273166
9660.174799522645	5307761.802815566
9839.952296278227	5307192.539832535
10023.075482838643	5306466.793855112
10209.606623060476	5304696.84951974
10399.609139541202	5302893.96621912
10593.1476351837	5301057.530953502
10790.287915161836	5299186.919315115
10991.097009294961	5297281.495275838
11195.643194838794	5295340.610970971
11403.99601970033	5293363.606478939
11616.22632608502	5291349.80959691
11832.40627458378	5289298.535612247
12052.609368708414	5287209.087069694
12276.910479883603	5285080.75353423
12505.385872903913	5282912.811349523
12738.113231864783	5280236.351347748
12975.171686575868	5277241.401891871
13216.641839466038	5274190.715917011
13462.60579298911	5271083.256157067
13713.147177539455	5267917.966042236
13968.351179887397	5264693.769339777
14228.30457214352	5261409.569788067
14493.09574126215	5258064.250723875
14762.81471909391	5254656.6747026695
15037.553212997384	5251185.683111892
15317.404637020798	5247650.095777001
15602.46414366368	5244048.710560206
15892.828656229764	5240330.395403564
16188.596901781993	5236257.45025253
16489.86944471065	5232108.706899199
16796.74872092653	5227882.75472613
17109.339072690134	5223578.156864048
17427.746784089173	5219193.4497033
17752.08011717636	5214727.142396206
18082.44934877952	5210177.71635016
18418.96680799711	5205543.6247112835
18761.746914391195	5200823.2918384895
19110.90621689136	5196015.112767739
19466.56343342263	5191117.452666342
19828.83949127071	5186128.646277092
20197.857568198782	5181062.647122133
20573.743134329114	5175910.4151864005
20956.623994804308	5170662.299337662
21346.630333242454	5165316.515159979
21743.8947560008	5159871.245029132
22148.55233726359	5154324.637494607
22560.74066496859	5148674.806650074
22980.599887588487	5142919.831492172
23408.272761782944	5137057.755267339
23843.904700937208	5131086.5848064935
24287.643824604504	5125004.289847341
24739.64100886812	5118808.8023440605
25200.049937640895	5112557.218474008
25669.027154919517	5106470.977647513
26146.732118010917	5100271.470843626
26633.327251749808	5093956.590163237
27128.978003724646	5087524.18847887
27633.852900531667	5080972.078704649
28148.123605075813	5074298.033052644
28671.964974937695	5067499.78227543
29205.55512182745	5060575.014894487
29749.075472144435	5053521.376414294
30302.71082866393	5046336.468521768
30866.649433372742	5039017.848270806
31441.08303147265	5031563.0272516655
32026.206936576502	5024395.723208159
32622.220097116733	5017290.5790549265
33229.325163989684	5010053.20696002
33847.72855945983	5002681.146138945
34477.640547344636	4995171.890011588
35119.275304507275	4987522.885349957
35772.850993678774	4979731.531410051
36438.58983763541	4971795.179047577
37116.71819475767	4963711.1298172185
37807.466635993485	4955476.635055135
38511.070023255685	4947088.89494438
39227.76758927723	4938545.05756294
39957.803018952654	4930016.156336065
40701.42453219439	4922030.734933389
41458.88496832911	4913896.703479643
42230.441872066716	4905611.296316489
43016.35758106799	4897171.696316215
43816.89931514194	4888575.0339238895
44632.33926710397	4879818.386181669
45462.95469532399	4870898.77573497
46309.02801799736	4861813.1698201345
47170.84690917023	4852558.47923325
48048.704396551344	4843131.557279805
48942.89896114532	4833529.198704759
49853.73463873894	4823748.138602733
50781.5211232767	4814578.331879632
51726.57387216024	4805560.9320681505
52689.21421350677	4796375.716911813
53669.76945540476	4787019.563338498
54668.57299720181	4777489.290155177
55685.96444286408	4767781.656966283
56722.28971644549	4757893.36307193
57777.90117970507	4747821.046345651
58853.1577519145	4737561.282091234
59948.42503189408	4727110.581878278
61064.07542232036	4716465.392356113
62200.48825634718	4705622.094045595
63358.04992658254	4694879.815748693
64537.15401646702	4684990.322185935
65738.20143409586	4674916.783465217
66961.60054853215	4664655.774474833
68207.76732865692	4654203.806361166
69477.1254846024	4643557.325342438
70770.10661181889	4632712.711500391
72087.15033782135	4621666.277549468
73428.70447166759	4610414.267583101
74795.22515621828	4598952.855796661
76187.17702322999	4587278.145186651
77605.0333513357	4575386.166225665
79049.2762269642	4563272.875512724
80520.39670825469	4552115.228549209
82018.8949920221	4541174.2090496225
83545.28058382872	4530029.575315469
85100.07247122246	4518677.538051197
86683.79930019773	4507114.23744182
88296.99955494082	4495335.741840537
89940.22174092053	4483338.046431933
91614.0245713852	4471117.071870295
93318.9771573324	4458668.662892593
95055.65920101192	4445988.586905647
96824.66119303115	4433072.532546991
98626.5846131283	4419916.108218975
100462.04213468132	4406980.114175281
102331.65783302448	4395212.138157379
104236.06739764012	4383225.158103393
106175.9183482999	4371015.0983109465
108151.87025522892	4358577.807228145
110164.59496336569	4345909.056042015
112214.77682079801	4333004.537240649
114303.11291144785	4319859.863148606
116430.31329208757	4306470.564435068
118597.10123376705	4292832.088594198
120804.21346773289	4278939.7983972635
123052.40043592616	4264788.970315907
125342.42654613995	4250374.79291611
127675.07043192645	4237339.379427063
130051.12521734099	4224579.126572563
132471.39878661174	4211581.40324121
134936.71405883064	4198341.790067017
137447.90926775365	4184855.785438855
140005.8382468096	4171118.8039698377
142611.37071941295	4157126.1749382517
145265.39259467812	4142873.1406994597
147968.80626863963	4128354.855068245
150722.53093107554	4113566.3816710594
153527.5028780421	4098502.692267606
156384.67583022476	4083158.665041176
159295.0212572123	4068205.165606833
162259.5287078087	4054772.2986171655
165279.2061464897	4041089.4436871354
168355.08029612005	4027151.948498642
171488.19698705408	4012955.074153139
174679.62151272455	3998493.9935603854
177930.43899185772	3983763.7897971603
181241.75473742394	3968759.454435469
184614.69463245454	3953475.885839622
188050.40551285836	3937907.8874316113
191550.0555573528	3922050.165924243
195114.83468466165	3905897.3295213357
198745.9549580986	3889443.886084467
202444.65099768018	3874882.264758274
206212.18039991445	3860648.2548396713
210049.8241653915	3846149.3475744827
213958.88713434213	3831380.613178013
217940.6984302958	3816337.030121435
221996.61191199525	3801013.4834244214
226128.00663372793	3785404.7629159805
230336.2873142131	3769505.5614629625
234622.88481422624	3753310.473165559
238989.25662310526	3736813.9915192486
243436.8873543108	3720010.5075425287
247967.289250216	3702894.3078697855
252582.00269627848	3686388.664070375
257282.59674479323	3671763.818415776
262070.66964838552	3656866.8018950373
266947.8494034318	3641692.5493620355
271915.7943036019	3626235.901407402
276976.1935036891	3610491.6026042933
282130.76759394706	3594454.299721472
287381.2691851069	3578118.539903156
292729.4835042813	3561478.7688149987
298177.22900196735	3544529.328755529
303726.3579703311	3527264.4567325073
309378.75717301364	3509678.282503415
315136.34848664823	3491764.826579525
321001.08955431683	3476292.8057027454
326974.97445117676	3461179.1132981414
333060.03436245886	3445784.152506204
339258.33827409917	3430102.6888743835
345571.9936762143	3414129.3905360787
352003.1472796675	3397858.82639775
358553.9857459817	3381285.4642922683
365226.7364308175	3364403.6690979498
372023.6681413066	3347207.7008225266
378947.09190746717	3329691.7126514986
385999.36176797637	3311849.748960162
393182.87557057705	3293675.743288609
400500.07578736113	3276356.2760752016
407953.45034524484	3261214.719016955
415545.53347188793	3245791.375005425
423278.90655735444	3230080.9999374705
431156.19903182285	3214078.2521162843
439180.0892596086	3197777.690435183
447353.3054498463	3181173.772527559
455678.6265841068	3164260.8528824183
464158.8833612772	3147033.1809248496
472796.9591600391	3129484.8990607546
481595.79101923504	3111610.040685226
490558.37063650455	3093402.5281538153
499687.7453854889	3074856.1707160757
508987.0193519675	3059241.7972433525
518459.3543892913	3043978.583134465
528107.971193433	3028431.318013887
537936.1503980698	3012594.7156439535
547947.2336900292	2996463.3914092225
558144.6249454955	2980031.8604856445
568531.7913873753	2963294.535975653
579112.2647641759	2946245.7270085746
589889.6425508494	2928879.6368056647
600867.5891719692	2911190.3607091308
612049.837247669	2893171.88417451
623440.1888627863	2874818.080725623
635042.5168595961	2857545.0110232146
646860.7661546321	2842616.3791288417
658898.9550799957	2827409.9228547164
671161.1767496272	2811920.471841864
683651.6004510238	2796142.7595100366
696374.4730628222	2780071.4212670424
709334.1204987989	2763700.992684713
722534.9491787221	2747025.9076409386
735981.4475265755	2730040.496427137
749678.1874966878	2712738.983820474
763629.8261282243	2695115.4871202465
777841.1071286482	2677164.014147686
792316.8624866261	2658878.4612085526
807062.0141149492	2643866.1381434896
822081.575524054	2629155.83252043
837380.6535266489	2614171.765606681
852964.4499741016	2598908.842658038
868838.2635251193	2583361.8741162415
885007.4914473438	2567525.5738444747
901477.6314524917	2551394.557330008
918254.2835656281	2534963.33985342
935343.1520292377	2518226.334623722
952750.0472427299	2501177.850878797
970480.8877380306	2483812.091950477
988541.7021919573	2466123.153293616
1006938.6314760271	2449685.001869464
1025677.9307444209	2435598.635530275
1044765.9715608053	2421250.1195166316
1064209.2440647245	2406634.575178493
1084014.359178331	2391747.033073296
1104188.0508541602	2376582.4312763195
1124737.1783647507	2361135.6136595528
1145668.7286348727	2345401.328138568
1166989.8186171474	2329374.224886757
1188707.6977119034	2313048.8545163223
1210829.7502320393	2296419.6662254343
1233363.4979137746	2279481.005910897
1256316.6024741214	2262227.1142456895
1279696.8682159416	2248392.8635945264
1303512.2446815087	2234779.7196558686
1327770.829355429	2220913.232792155
1352480.8704178738	2206788.6882484416
1377650.769549055	2192401.283527393
1403289.084785873	2177746.1267563836
1429404.533431761	2162818.2350242035
1456005.9950206485	2147612.532686818
1483102.514336103	2132123.8496415922
1510703.3044866556	2116346.9195694015
1538817.7500383465	2100276.37814403
1567455.410205595	2083906.7612082337
1596626.022101425	2068881.6929128007
1626339.5040481905	2056073.709402169
1656605.9589499151	2043027.367139049
1687435.6777273756	2029738.2302265004
1718839.1428171454	2016201.780214783
1750827.0317357269	2002413.4145650386
1783410.220710006	1988368.4450843828
1816599.7883753285	1974062.0963318527
1850407.019542302	1959489.5039947296
1884843.4090337954	1944645.7132345983
1919920.6655932867	1929525.6770026602
1955650.715865947	1914124.2543236846
1992045.7084538713	1898436.2085480052
2029118.0180466783	1886126.6641803728
2066880.2496290822	1873943.254066749
2105345.242766708	1861533.108617829
2144526.0759716653	1848892.0082504472
2184436.0711494284	1836015.654854267
2225088.7981283693	1822899.6703303966
2266498.079273693	1809539.5951027744
2308677.994187172	1795930.886601867
2351642.884494346	1782068.9177201584
2395407.358720879	1767948.9752388615
2439986.29725955	1753566.258225396
2485394.857429798	1738915.8764010046
2531648.478631358	1725627.9850613922
2578762.8875937983	1714325.5420853917
2626754.1037238385	1702812.758722427
2675638.4445520453	1691085.7205021102
2725432.531281028	1679140.4401050874
2776153.2944368036	1666972.8560073143
2827817.979625338	1654578.8310990965
2880444.1533962977	1641954.1512784169
2934049.709215787	1629094.5240181119
2988652.873550383	1615995.5769063486
3044272.2120643063	1602652.856159971
3100926.6359319235	1589061.8251101621
3158635.408267819	1575217.8626599186
3217418.1506763715	1564565.9534600968
3277294.849923382	1553947.9170923699
3338285.8647317644	1543132.2772611154
3400411.9327037027	1532115.3565322587
3463694.1773717343	1520893.4090340403
3528154.1153808828	1509462.6191833997
3593813.6638046256	1497819.1003886214
3660695.147596906	1485958.8937278574
3728821.30718283	1473877.9666030533
3798215.306190736	1461572.211368812
3868900.7393279755	1449037.443935766
3940901.6404034477	1436269.4023479244
4014242.490499326	1424820.0865471656
4088948.226294856	1415077.5135310434
4165044.248545185	1405153.629573332
4242556.430717777	1395045.06044656
4321511.127789762	1384748.369128306
4401935.1852088785	1374260.054632574
4483855.948021181	1363576.5508194296
4567301.270168747	1352694.2251824585
4652299.523960189	1341609.3776136914
4738879.609717651	1330318.2391455164
4827070.965603188	1318816.970669193
4916903.577628021	1307101.6616295183
5008407.989848212	1295168.3286951825
5101615.314749833	1286148.2958418468
5196557.243827657	1277083.6863309296
5293266.058360566	1267850.382894616
5391774.640387494	1258445.246110253
5492116.483887789	1248865.0781299903
5594325.706169377	1239106.6215934937
5698437.0594691355	1229166.5585203927
5804485.942768984	1219041.5091821398
5912508.413831869	1208728.0309528655
6022541.201461928	1198222.6171388428
6134621.717992506	1187521.6957861832
6248788.072006888	1176621.6284663256
6365079.081295578	1166953.7597142789
6483534.286054714	1158706.7706310002
6604193.962330305	1150306.3036776048
6727099.135712336	1141749.5026048182
6852291.595284057	1133033.4580080763
6979813.907830667	1124155.206338301
7109709.432312423	1115111.7288942656
7242022.334607315	1105899.9507961927
7376797.60252773	1096516.7399402766
7514081.061116962	1086958.9059337229
7653919.388230155	1077223.1990099833
7796360.130405221	1067306.3089238065
7941451.71902934	1057204.8638257054
8089243.486805938	1049692.944768783
8239785.684528512	1042076.7112540533
8393129.498166373	1034318.7383376664
8549327.066268368	1026416.3882252412
8708431.497690724	1018366.9740325902
8870496.889654402	1010167.758872159
9035578.34613892	1001815.9549224465
9203731.99661823	993308.7224801198
9375015.01514529	984643.1689944857
9549485.639791967	975816.3480839885
9727203.192450536	966825.2585344104
9908228.099003786	957666.8432784273
10092621.909870483	949629.1343205837
10280447.320933098	942744.9470362995
10471768.194855202	935732.6438552693
10666649.582795387	928589.8405188546
10865157.746525371	921314.1083969588
11067360.180959744	913902.9736622644
11273325.63710487	906353.9164491092
11483124.14543511	898664.3699967001
11696827.039703846	890831.7197763892
11914506.981197748	882853.3026027062
12136237.983442418	874726.4057278448
12362095.437367693	866448.2659193029
12592156.13694151	858045.5821998991
12826498.3052806	851839.7171058191
13065201.621247198	845518.3598063734
13308347.24654076	839079.3609719675
13556017.853293689	832520.53127362
13808297.652180923	825839.6406385617
14065272.421052363	819034.4174919919
14327029.534098294	812102.5479847149
14593657.991557576	805041.6752064077
14865248.449978571	797849.3983842472
15141893.25304352	790523.2720666179
15423686.462966273	783060.8052916328
15710723.892474487	775459.4607401821
16003103.137387017	768856.4493601699
16300923.609797413	763171.348836519
16604286.571875297	757380.4476247691
16913295.17029647	751481.776756112
17228054.471313924	745473.3306188954
17548671.49648152	739353.0662766913
17875255.259042352	733118.9027736799
18207916.800994623	726768.7204270969
18546769.230846975	720300.3601065233
18891927.762076646	713711.6224997533
19243509.75230332	707000.2673650074
19601634.743191857	700164.0127692275
19966424.501097932	693274.4762713955
20338003.0584698	688172.164069594
20716496.75602067	682974.8969695279
21102034.285685964	677680.9078443836
21494746.734379806	672288.3966808167
21894767.628566206	666795.5299669278
22302232.979659364	661200.4400688494
22717281.330269028	655501.2245957298
