# Frequency (Hz)	Real Part (Ohm/m)
1000.0	10068545.433598453
1018.6101701559753	10115196.309253471
1037.566678745186	10162715.365642356
1056.875971184804	10211118.759756288
1076.5446128423157	10260422.94927081
1096.5792912678098	10310644.698141597
1116.9868184678226	10361801.082304401
1137.7741332214914	10413909.49548104
1158.9483034398106	10466987.655093452
1180.5165285688054	10521053.608287819
1202.4861420374123	10576125.738070777
1224.8646137509306	10632222.769559843
1247.6595526308697	10689363.776350176
1270.8787092020582	10739755.563480603
1294.529978227916	10783584.803230846
1318.6214013947485	10828229.712590646
1343.1611700460153	10873705.471310236
1368.1576279674719	10920027.54163757
1393.619274224142	10967211.673575664
1419.5547660501015	11015273.910237795
1445.9729217920194	11064230.593302285
1472.882723907502	11114098.368568875
1500.2933220192183	11164894.191618478
1528.2140360258693	11216635.333578246
1556.654359271062	11269339.38699395
1585.6239617711371	11322646.85154015
1615.132693503091	11362090.504069777
1645.1905877536624	11402268.209684553
1675.807864530767	11443193.629237298
1706.9949340384078	11484880.677811623
1738.7624002162504	11527343.529453214
1771.1210643450886	11570596.621989166
1804.0819287193826	11614654.661936989
1837.6562003881704	11659532.62950497
1871.8552949655793	11705245.783685653
1906.690840512252	11751809.667444002
1942.1746814890264	11799240.113002216
1978.3188827841643	11847553.247222845
2015.1357338155585	11888845.53033125
2052.6377527092523	11924028.305289565
2090.8376905557498	11959865.837676408
2129.748535745521	11996370.312638948
2169.3835183851843	12033554.142091988
2209.756114795903	12071429.968938204
2250.880052095462	12110010.671366826
2292.7693128656488	12149309.367232379
2335.438139906479	12189339.4185149
2378.9010410788933	12230114.43586314
2423.1727942376006	12271648.283222346
2468.2684522556924	12313955.082548138
2514.2033481427966	12356354.647649834
2560.9931002584594	12386224.03525598
2608.6536176225477	12416649.297247928
2657.2011053245064	12447640.77854259
2706.652070033241	12479209.016577529
2757.0233256095826	12511364.744893821
2808.3319988231724	12544118.896785572
2860.5955351757416	12577482.609017339
2913.831704832789	12611467.225610778
2968.0586086656026	12646084.301701704
3023.2946844057765	12681345.607468985
3079.5587129142264	12717263.132136516
3136.8698245668766	12753849.088049691
3195.2475057592133	12783880.62991049
3254.711605531848	12808791.50771559
3315.282342319423	12834165.981195372
3376.9803108250912	12860012.677944236
3439.8264890229243	12886340.38611756
3503.8422452906757	12913158.057419814
3569.0493456752292	12940474.810148189
3635.4699612933177	12968299.932292944
3703.126675869927	12996642.884695427
3772.0424934169973	13025513.304264843
3842.240846055061	13054921.00725492
3913.745601980384	13084875.992601536
3986.581073580439	13114528.831792437
4060.7720257003657	13134033.28010853
4136.343684063274	13153900.709526576
4213.321743847289	13174137.875186656
4291.732378422157	13194751.657943146
4371.602248248501	13215749.06670429
4452.958509942655	13237137.240815317
4535.828825510186	13258923.452485874
4620.241371751313	13281115.109262675
4706.224849841281	13303719.756548135
4793.808495089106	13326745.080165893
4883.02208687788	13350198.908974076
4973.895958790063	13374089.217527186
5066.461008921268	13392555.648347354
5160.7487103859075	13407207.165628709
5256.791122018419	13422131.350139713
5354.620899273607	13437333.276263906
5454.271305329836	13452818.112819972
5555.7762223988775	13468591.12481918
5659.170163246242	13484657.675255565
5764.488282925873	13501023.226929395
5871.766390733255	13517693.344304567
5981.040962380945	13534673.69540061
6092.349152400711	13551970.053719865
6205.7288067765	13569588.300210513
6321.218475812449	13586700.804370845
6438.8574272404185	13596559.614338761
6558.685659571435	13606601.89843772
6680.743915695614	13616831.071152516
6805.073696735206	13627250.610512083
6931.717276155407	13637864.059272084
7060.717714137772	13648675.02611945
7192.118872221193	13659687.186899396
7325.96542821523	13670904.285865238
7462.302891391108	13682330.136951493
7601.17761795533	13693968.62507064
7742.636826811269	13705823.707434043
7886.728615614156	13717899.414897444
8033.501977124735	13726058.068297166
8183.00681586739	13731723.98102459
8335.293965098195	13737495.337351957
8490.415204088747	13743374.099602602
8648.423275731726	13749362.266619043
8809.37190447399	13755461.874442583
8973.31581458352	13761674.997005604
9140.310748756232	13768003.746836724
9310.413487069076	13774450.275779076
9483.681866285926	13781016.775721954
9660.174799522645	13787705.479346102
9839.952296278227	13794518.660882821
10023.075482838643	13800807.686073586
10209.606623060476	13802614.84191917
10399.609139541202	13804455.62924254
10593.1476351837	13806330.673931219
10790.287915161836	13808240.613520605
10991.097009294961	13810186.097410737
11195.643194838794	13812167.787087101
11403.99601970033	13814186.356345536
11616.22632608502	13816242.491521344
11832.40627458378	13818336.89172264
12052.609368708414	13820470.26906805
12276.910479883603	13822643.348928869
12505.385872903913	13824856.87017566
12738.113231864783	13824659.771366397
12975.171686575868	13823051.928628625
13216.641839466038	13821414.163663916
13462.60579298911	13819745.919614537
13713.147177539455	13818046.629259536
13968.351179887397	13816315.714821884
14228.30457214352	13814552.587772025
14493.09574126215	13812756.648627762
14762.81471909391	13810927.286750432
15037.553212997384	13809063.880137287
15317.404637020798	13807165.795210002
15602.46414366368	13805232.38659925
15892.828656229764	13802868.450629925
16188.596901781993	13798204.030125486
16489.86944471065	13793452.803961787
16796.74872092653	13788613.156670725
17109.339072690134	13783683.442720085
17427.746784089173	13778661.985954
17752.08011717636	13773547.079023069
18082.44934877952	13768336.982803825
18418.96680799711	13763029.925807407
18761.746914391195	13757624.10357726
19110.90621689136	13752117.678075578
19466.56343342263	13746508.777058357
19828.83949127071	13740795.493438818
20197.857568198782	13733895.579000885
20573.743134329114	13726311.817097608
20956.623994804308	13718586.920094896
21346.630333242454	13710718.26144452
21743.8947560008	13702703.165717764
22148.55233726359	13694538.907695716
22560.74066496859	13686222.711442681
22980.599887588487	13677751.749362327
23408.272761782944	13669123.14123627
23843.904700937208	13660333.95324478
24287.643824604504	13651381.196969237
24739.64100886812	13642261.828376038
25200.049937640895	13632834.619812923
25669.027154919517	13622574.762134861
26146.732118010917	13612123.96675964
26633.327251749808	13601478.680304218
27128.978003724646	13590635.283256503
27633.852900531667	13579590.088744666
28148.123605075813	13568339.341283547
28671.964974937695	13556879.215497805
29205.55512182745	13545205.814821173
29749.075472144435	13533315.170171654
30302.71082866393	13521203.238601945
30866.649433372742	13508865.901924804
31441.08303147265	13496298.965312831
32026.206936576502	13483436.763268998
32622.220097116733	13470307.02940965
33229.325163989684	13456932.948969081
33847.72855945983	13443309.974615823
34477.640547344636	13429433.47439183
35119.275304507275	13415298.730137497
35772.850993678774	13400900.935887475
36438.58983763541	13386235.196236594
37116.71819475767	13371296.524675345
37807.466635993485	13356079.841894437
38511.070023255685	13340579.974057766
39227.76758927723	13324791.65104326
39957.803018952654	13308816.004285054
40701.42453219439	13292972.996056419
41458.88496832911	13276835.146748869
42230.441872066716	13260396.969319753
43016.35758106799	13243652.87461163
43816.89931514194	13226597.169451877
44632.33926710397	13209224.054716973
45462.95469532399	13191527.623360708
46309.02801799736	13173501.858405756
47170.84690917023	13155140.630897796
48048.704396551344	13136437.697821643
48942.89896114532	13117386.699978527
49853.73463873894	13097981.15982391
50781.5211232767	13079026.559623893
51726.57387216024	13060049.925760228
52689.21421350677	13040720.133511377
53669.76945540476	13021030.610539699
54668.57299720181	13000974.662195224
55685.96444286408	12980545.46923942
56722.28971644549	12959736.085526558
57777.90117970507	12938539.435641957
58853.1577519145	12916948.312496271
59948.42503189408	12894955.374874983
61064.07542232036	12872553.144942334
62200.48825634718	12849734.005698763
63358.04992658254	12826888.980258325
64537.15401646702	12805005.119846722
65738.20143409586	12782713.99706919
66961.60054853215	12760008.032703796
68207.76732865692	12736879.506478008
69477.1254846024	12713320.554443702
70770.10661181889	12689323.166303342
72087.15033782135	12664879.182686394
73428.70447166759	12639980.292375037
74795.22515621828	12614618.029478295
76187.17702322999	12588783.770553505
77605.0333513357	12562468.73167427
79049.2762269642	12535663.965443833
80520.39670825469	12510204.126764666
82018.8949920221	12484932.806833573
83545.28058382872	12459191.183338493
85100.07247122246	12432970.50385008
86683.79930019773	12406261.853054782
88296.99955494082	12379056.149723547
89940.22174092053	12351344.1436241
91614.0245713852	12323116.412375785
93318.9771573324	12294363.358245822
95055.65920101192	12265075.204885997
96824.66119303115	12235241.99400859
98626.5846131283	12204853.582000451
100462.04213468132	12174726.337922607
102331.65783302448	12146541.513982072
104236.06739764012	12117832.165672183
106175.9183482999	12088588.531505184
108151.87025522892	12058800.668330355
110164.59496336569	12028458.447953261
112214.77682079801	11997551.553692035
114303.11291144785	11966069.476869622
116430.31329208757	11934001.513240678
118597.10123376705	11901336.75935204
120804.21346773289	11868064.108835435
123052.40043592616	11834172.248631177
125342.42654613995	11799649.65514161
127675.07043192645	11767724.770385014
130051.12521734099	11736224.334236773
132471.39878661174	11704137.669611828
134936.71405883064	11671453.866698474
137447.90926775365	11638161.812651556
140005.8382468096	11604250.187813986
142611.37071941295	11569707.46186792
145265.39259467812	11534521.889914349
147968.80626863963	11498681.508479685
150722.53093107554	11462174.131448068
153527.5028780421	11424987.345917946
156384.67583022476	11387108.50798155
159295.0212572123	11349965.627898214
162259.5287078087	11315965.428291801
165279.2061464897	11281332.479185367
168355.08029612005	11246055.005003072
171488.19698705408	11210121.011023559
174679.62151272455	11173518.27930171
177930.43899185772	11136234.364514343
181241.75473742394	11098256.589728698
184614.69463245454	11059572.042092156
188050.40551285836	11020167.56844168
191550.0555573528	10980029.770831669
195114.83468466165	10939145.001978446
198745.9549580986	10897499.36062008
202444.65099768018	10860063.68213669
206212.18039991445	10823288.923732242
210049.8241653915	10785829.780816445
213958.88713434213	10747673.51687709
217940.6984302958	10708807.158373304
221996.61191199525	10669217.49032442
226128.00663372793	10628891.051816728
230336.2873142131	10587814.131426623
234622.88481422624	10545972.76255858
238989.25662310526	10503352.718696335
243436.8873543108	10459939.508565767
247967.289250216	10415718.371207643
252582.00269627848	10372884.527320478
257282.59674479323	10334458.599413484
262070.66964838552	10295317.558449736
266947.8494034318	10255448.096053582
271915.7943036019	10214836.656178197
276976.1935036891	10173469.430496456
282130.76759394706	10131332.353705896
287381.2691851069	10088411.098746384
292729.4835042813	10044691.071928779
298177.22900196735	10000157.407972863
303726.3579703311	9954794.964953065
309378.75717301364	9908588.319149977
315136.34848664823	9861521.759806149
321001.08955431683	9820426.031754134
326974.97445117676	9780160.144258676
333060.03436245886	9739144.901745453
339258.33827409917	9697366.358590072
345571.9936762143	9654810.309637694
352003.1472796675	9611462.285373155
358553.9857459817	9567307.54700112
365226.7364308175	9522331.08143479
372023.6681413066	9476517.596191261
378947.09190746717	9429851.514191905
385999.36176797637	9382316.968466038
393182.87557057705	9333897.796755914
400500.07578736113	9287604.213886157
407953.45034524484	9246793.533655478
415545.53347188793	9205223.359721517
423278.90655735444	9162879.55777724
431156.19903182285	9119747.730473727
439180.0892596086	9075813.212524958
447353.3054498463	9031061.065721443
455678.6265841068	8985476.073851062
464158.8833612772	8939042.737525426
472796.9591600391	8891745.268909851
481595.79101923504	8843567.586355397
490558.37063650455	8794493.308930883
499687.7453854889	8744505.750853213
508987.0193519675	8702086.076933937
518459.3543892913	8660541.1195767
528107.971193433	8618223.00349393
537936.1503980698	8575117.340070171
547947.2336900292	8531209.472915415
558144.6249454955	8486484.472881725
568531.7913873753	8440927.132987175
579112.2647641759	8394521.96324534
589889.6425508494	8347253.18539849
600867.5891719692	8299104.727552844
612049.837247669	8250060.218713949
623440.1888627863	8200102.983220339
635042.5168595961	8152967.9240484
646860.7661546321	8111988.0328638675
658898.9550799957	8070245.498931416
671161.1767496272	8027726.12933975
683651.6004510238	7984415.467045046
696374.4730628222	7940298.785955476
709334.1204987989	7895361.085924113
722534.9491787221	7849587.087648743
735981.4475265755	7802961.227476757
749678.1874966878	7755467.652113293
763629.8261282243	7707090.213231004
777841.1071286482	7657812.461979407
792316.8624866261	7607617.643392106
807062.0141149492	7566153.2102935305
822081.575524054	7525472.09227959
837380.6535266489	7484033.891737277
852964.4499741016	7441824.519231913
868838.2635251193	7398829.623122043
885007.4914473438	7355034.584679737
901477.6314524917	7310424.513120029
918254.2835656281	7264984.2405379275
935343.1520292377	7218698.316751138
952750.0472427299	7171551.004046842
970480.8877380306	7123526.271830731
988541.7021919573	7074607.791176382
1006938.6314760271	7029053.154756616
1025677.9307444209	6989840.454558736
1044765.9715608053	6949897.99933789
1064209.2440647245	6909212.208228946
1084014.359178331	6867769.247624531
1104188.0508541602	6825555.0264715
1124737.1783647507	6782555.191479809
1145668.7286348727	6738755.122242241
1166989.8186171474	6694139.926263321
1188707.6977119034	6648694.433895691
1210829.7502320393	6602403.19318228
1233363.4979137746	6555250.464602461
1256316.6024741214	6507220.215720446
1279696.8682159416	6468514.054840446
1303512.2446815087	6430394.77875749
1327770.829355429	6391566.096460408
1352480.8704178738	6352014.805778841
1377650.769549055	6311727.458847801
1403289.084785873	6270690.357535246
1429404.533431761	6228889.548784554
1456005.9950206485	6186310.819870356
1483102.514336103	6142939.693566038
1510703.3044866556	6098761.423221337
1538817.7500383465	6053760.987748329
1567455.410205595	6007923.086514075
1596626.022101425	5965774.781211006
1626339.5040481905	5929719.188752703
1656605.9589499151	5892992.595583672
1687435.6777273756	5855582.514266522
1718839.1428171454	5817476.224970509
1750827.0317357269	5778660.77114668
1783410.220710006	5739122.955122518
1816599.7883753285	5698849.333614542
1850407.019542302	5657826.2131575085
1884843.4090337954	5616039.645448441
1919920.6655932867	5573475.422604069
1955650.715865947	5530119.072330016
1992045.7084538713	5485955.853000011
2029118.0180466783	5451155.456457086
2066880.2496290822	5416693.066845838
2105345.242766708	5381589.32629994
2144526.0759716653	5345832.299169381
2184436.0711494284	5309409.8276796425
2225088.7981283693	5272309.527797981
2266498.079273693	5234518.785022685
2308677.994187172	5196024.750094015
2351642.884494346	5156814.334625342
2395407.358720879	5116874.206652902
2439986.29725955	5076190.786102846
2485394.857429798	5034750.240173829
2531648.478631358	4997105.291129047
2578762.8875937983	4964995.631905522
2626754.1037238385	4932288.406460189
2675638.4445520453	4898972.493983993
2725432.531281028	4865036.566707714
2776153.2944368036	4830469.08605042
2827817.979625338	4795258.298696237
2880444.1533962977	4759392.232598057
2934049.709215787	4722858.692906968
2988652.873550383	4685645.257825831
3044272.2120643063	4647739.27438574
3100926.6359319235	4609127.854143908
3158635.408267819	4569797.868801404
3217418.1506763715	4539426.927093145
3277294.849923382	4509142.818282036
3338285.8647317644	4478295.117052926
3400411.9327037027	4446873.334855028
3463694.1773717343	4414866.787943818
3528154.1153808828	4382264.5937484875
3593813.6638046256	4349055.667171723
3660695.147596906	4315228.716820665
3728821.30718283	4280772.241167723
3798215.306190736	4245674.524639898
3868900.7393279755	4209923.633635406
3940901.6404034477	4173507.412466094
4014242.490499326	4140808.469920562
4088948.226294856	4112922.412095659
4165044.248545185	4084517.38998965
4242556.430717777	4055583.745588966
4321511.127789762	4026111.6411427534
4401935.1852088785	3996091.0558179384
4483855.948021181	3965511.7822920536
4567301.270168747	3934363.423282599
4652299.523960189	3902635.388011902
4738879.609717651	3870316.8886061027
4827070.965603188	3837396.9364271727
4916903.577628021	3803864.338336673
5008407.989848212	3769707.6928899297
5101615.314749833	3743811.0117049236
5196557.243827657	3717782.1776016084
5293266.058360566	3691268.942466664
5391774.640387494	3664262.2915144805
5492116.483887789	3636753.042192727
5594325.706169377	3608731.841060236
5698437.0594691355	3580189.1606066944
5804485.942768984	3551115.2960132016
5912508.413831869	3521500.361852538
6022541.201461928	3491334.28872798
6134621.717992506	3460606.819849641
6248788.072006888	3429307.5075470125
6365079.081295578	3401514.3399515054
6483534.286054714	3377764.8075740486
6604193.962330305	3353573.2923579165
6727099.135712336	3328931.568927283
6852291.595284057	3303831.2588306707
6979813.907830667	3278263.8276921883
7109709.432312423	3252220.5823097746
7242022.334607315	3225692.6676993743
7376797.60252773	3198671.0640841937
7514081.061116962	3171146.5838278467
7653919.388230155	3143109.8683104725
7796360.130405221	3114551.384746711
7941451.71902934	3085461.4229444237
8089243.486805938	3063773.440531268
8239785.684528512	3041783.3198450897
8393129.498166373	3019383.9592711884
8549327.066268368	2996567.7427856275
8708431.497690724	2973326.912628949
8870496.889654402	2949653.5666684913
9035578.34613892	2925539.655711548
9203731.99661823	2900976.9807685674
9375015.01514529	2875957.190265415
9549485.639791967	2850471.7772037312
9727203.192450536	2824512.076268475
9908228.099003786	2798069.2608816153
10092621.909870483	2774839.346465892
10280447.320933098	2754916.4421307105
10471768.194855202	2734622.7691558497
10666649.582795387	2713951.4274738375
10865157.746525371	2692895.3886057707
11067360.180959744	2671447.4932715558
11273325.63710487	2649600.4489556854
11483124.14543511	2627346.8274276922
11696827.039703846	2604679.0622164765
11914506.981197748	2581589.446037624
12136237.983442418	2558070.1281728446
12362095.437367693	2534113.111800651
12592156.13694151	2509795.198688268
12826498.3052806	2491797.7788141617
13065201.621247198	2473465.4238938284
13308347.24654076	2454791.9007290667
13556017.853293689	2435770.8601207985
13808297.652180923	2416395.834710268
14065272.421052363	2396660.23678007
14327029.534098294	2376557.3560142615
14593657.991557576	2356080.357216774
14865248.449978571	2335222.2779873833
15141893.25304352	2313976.026354407
15423686.462966273	2292334.378363364
15710723.892474487	2270289.975620752
16003103.137387017	2251124.8112613866
16300923.609797413	2234606.746811816
16604286.571875297	2217781.278372191
16913295.17029647	2200642.685101951
17228054.471313924	2183185.1396947177
17548671.49648152	2165402.706396948
17875255.259042352	2147289.338989722
18207916.800994623	2128838.87873295
18546769.230846975	2110045.0522713424
18891927.762076646	2090901.4695014032
19243509.75230332	2071401.6213987176
19601634.743191857	2051538.877804828
19966424.501097932	2031520.400681398
20338003.0584698	2016670.7802658859
20716496.75602067	2001544.8058876882
21102034.285685964	1986137.3345525367
