# Frequency (Hz)	Imaginary Part (Ohm/m)
1000.0	64207171.67990948
1018.6101701559753	64091730.2570645
1037.566678745186	63974140.44969732
1056.875971184804	63854362.27600644
1076.5446128423157	63732355.01012219
1096.5792912678098	63608077.16825958
1116.9868184678226	63481486.49461328
1137.7741332214914	63352539.94699025
1158.9483034398106	63221193.68217496
1180.5165285688054	63087403.04102209
1202.4861420374123	62951122.53327208
1224.8646137509306	62812305.822083905
1247.6595526308697	62670905.708280034
1270.8787092020582	62537924.38974948
1294.529978227916	62413076.85392924
1318.6214013947485	62285905.88422384
1343.1611700460153	62156368.24113332
1368.1576279674719	62024419.88046329
1393.619274224142	61890015.938349366
1419.5547660501015	61753110.71600307
1445.9729217920194	61613657.664173685
1472.882723907502	61471609.367320985
1500.2933220192183	61326917.52749346
1528.2140360258693	61179532.947906606
1556.654359271062	61029405.51621525
1585.6239617711371	60877093.204476774
1615.132693503091	60745918.23000559
1645.1905877536624	60612302.06693929
1675.807864530767	60476199.284342706
1706.9949340384078	60337563.60580331
1738.7624002162504	60196347.89369663
1771.1210643450886	60052504.13315892
1804.0819287193826	59905983.41576175
1837.6562003881704	59756735.92288242
1871.8552949655793	59604710.90876527
1906.690840512252	59449856.68326744
1942.1746814890264	59292120.59428371
1978.3188827841643	59131449.009844266
2015.1357338155585	58982489.06383318
2052.6377527092523	58843524.45241301
2090.8376905557498	58701973.685928635
2129.748535745521	58557788.635594286
2169.3835183851843	58410920.276939265
2209.756114795903	58261318.67313915
2250.880052095462	58108932.95803669
2292.7693128656488	57953711.31884686
2335.438139906479	57795600.978539795
2378.9010410788933	57634548.17789621
2423.1727942376006	57470498.157228544
2468.2684522556924	57303395.13776216
2514.2033481427966	57134680.42092846
2560.9931002584594	56991554.129280925
2608.6536176225477	56845764.232992046
2657.2011053245064	56697261.1619262
2706.652070033241	56545994.42343913
2757.0233256095826	56391912.58520988
2808.3319988231724	56234963.25775322
2860.5955351757416	56075093.07660675
2913.831704832789	55912247.68418626
2968.0586086656026	55746371.71130372
3023.2946844057765	55577408.75834105
3079.5587129142264	55405301.37607369
3136.8698245668766	55229991.046137236
3195.2475057592133	55069770.05479384
3254.711605531848	54920973.19862078
3315.282342319423	54769407.20763566
3376.9803108250912	54615020.54776845
3439.8264890229243	54457760.7258913
3503.8422452906757	54297574.27197031
3569.0493456752292	54134406.72088519
3635.4699612933177	53968202.593910426
3703.126675869927	53798905.37985202
3772.0424934169973	53626457.51583308
3842.240846055061	53450800.36772171
3913.745601980384	53271874.21019487
3986.581073580439	53092219.63097297
4060.7720257003657	52941603.47412052
4136.343684063274	52788184.324960835
4213.321743847289	52631910.01933009
4291.732378422157	52472727.42228055
4371.602248248501	52310582.41001406
4452.958509942655	52145419.85147933
4535.828825510186	51977183.589626886
4620.241371751313	51805816.42231495
4706.224849841281	51631260.08286022
4793.808495089106	51453455.2202264
4883.02208687788	51272341.37884442
4973.895958790063	51087856.978056714
5066.461008921268	50921503.24221794
5160.7487103859075	50767334.48174173
5256.791122018419	50610296.61440029
5354.620899273607	50450336.2456267
5454.271305329836	50287398.987172015
5555.7762223988775	50121429.438612774
5659.170163246242	49952371.16851411
5764.488282925873	49780166.69524265
5871.766390733255	49604757.46742196
5981.040962380945	49426083.84402461
6092.349152400711	49244085.07409346
6205.7288067765	49058699.27608571
6321.218475812449	48873662.96387302
6438.8574272404185	48719696.12226085
6558.685659571435	48562863.93152792
6680.743915695614	48403113.06703952
6805.073696735206	48240389.21178043
6931.717276155407	48074637.037886515
7060.717714137772	47905800.1878327
7192.118872221193	47733821.25527082
7325.96542821523	47558641.76551069
7462.302891391108	47380202.155638315
7601.17761795533	47198441.75426362
7742.636826811269	47013298.76089174
7886.728615614156	46824710.22491001
8033.501977124735	46656650.57963414
8183.00681586739	46500812.19375779
8335.293965098195	46342073.62900345
8490.415204088747	46180380.912548736
8648.423275731726	46015679.06712781
8809.37190447399	45847912.092338584
8973.31581458352	45677022.94560199
9140.310748756232	45502953.52276682
9310.413487069076	45325644.63835372
9483.681866285926	45145036.00543154
9660.174799522645	44961066.215119034
9839.952296278227	44773672.71570525
10023.075482838643	44587763.87914744
10209.606623060476	44433522.6020831
10399.609139541202	44276410.86860755
10593.1476351837	44116375.2590385
10790.287915161836	43953361.35954436
10991.097009294961	43787313.743642844
11195.643194838794	43618175.95335539
11403.99601970033	43445890.48001088
11616.22632608502	43270398.74469206
11832.40627458378	43091641.07831796
12052.609368708414	42909556.70135597
12276.910479883603	42724083.70315596
12505.385872903913	42535159.020900115
12738.113231864783	42368452.47730296
12975.171686575868	42213412.06103823
13216.641839466038	42055486.31624577
13462.60579298911	41894621.54647071
13713.147177539455	41730763.055958025
13968.351179887397	41563855.131055415
14228.30457214352	41393841.02126998
14493.09574126215	41220662.919972524
14762.81471909391	41044261.944742605
15037.553212997384	40864578.11734802
15317.404637020798	40681550.34335132
15602.46414366368	40495116.39133728
15892.828656229764	40311265.16894373
16188.596901781993	40158606.774508394
16489.86944471065	40003107.381376915
16796.74872092653	39844714.11808009
17109.339072690134	39683373.12920177
17427.746784089173	39519029.55706728
17752.08011717636	39351627.52309131
18082.44934877952	39181110.1087786
18418.96680799711	39007419.336370975
18761.746914391195	38830496.14913433
19110.90621689136	38650280.39127868
19466.56343342263	38466710.78750451
19828.83949127071	38279724.922168665
20197.857568198782	38116116.87668693
20573.743134329114	37963272.91635212
20956.623994804308	37807584.50390817
21346.630333242454	37648998.703617305
21743.8947560008	37487461.59459872
22148.55233726359	37322918.2524948
22560.74066496859	37155312.73079627
22980.599887588487	36984588.04181986
23408.272761782944	36810686.137331784
23843.904700937208	36633547.888810724
24287.643824604504	36453113.06734356
24739.64100886812	36269320.32314685
25200.049937640895	36089153.40777926
25669.027154919517	35939159.53115179
26146.732118010917	35786374.24295793
26633.327251749808	35630745.59455345
27128.978003724646	35472220.67052103
27633.852900531667	35310745.57067839
28148.123605075813	35146265.391751714
28671.964974937695	34978724.20870794
29205.55512182745	34808065.05573959
29749.075472144435	34634229.90689582
30302.71082866393	34457159.656353
30866.649433372742	34276794.09831797
31441.08303147265	34093071.906557664
32026.206936576502	33933652.31070347
32622.220097116733	33783983.30349797
33229.325163989684	33631528.930601336
33847.72855945983	33476237.355884034
34477.640547344636	33318055.77853747
35119.275304507275	33156930.415120956
35772.850993678774	32992806.481274784
36438.58983763541	32825628.173093114
37116.71819475767	32655338.648149755
37807.466635993485	32481880.006171443
38511.070023255685	32305193.269350886
39227.76758927723	32125218.36229377
39957.803018952654	31949894.995800808
40701.42453219439	31803609.158900622
41458.88496832911	31654600.91768433
42230.441872066716	31502819.607744373
43016.35758106799	31348213.621799905
43816.89931514194	31190730.392149895
44632.33926710397	31030316.372799393
45462.95469532399	30866917.021253377
46309.02801799736	30700476.779971708
47170.84690917023	30530939.05747897
48048.704396551344	30358246.209122803
48942.89896114532	30182339.517474007
49853.73463873894	30003159.17236205
50781.5211232767	29849188.107403316
51726.57387216024	29703975.922762383
52689.21421350677	29556061.314656578
53669.76945540476	29405393.990525384
54668.57299720181	29251922.721855152
55685.96444286408	29095595.32676091
56722.28971644549	28936358.652243905
57777.90117970507	28774158.556119096
58853.1577519145	28608939.88860608
59948.42503189408	28440646.473577708
61064.07542232036	28269221.089459524
62200.48825634718	28094605.449773837
63358.04992658254	27925681.70290042
64537.15401646702	27784698.320844464
65738.20143409586	27641091.21405927
66961.60054853215	27494811.554581206
68207.76732865692	27345809.605749883
69477.1254846024	27194034.70529725
70770.10661181889	27039435.248121783
72087.15033782135	26881958.668742258
73428.70447166759	26721551.4234249
74795.22515621828	26558158.971977923
76187.17702322999	26391725.75920733
77605.0333513357	26222195.196027473
79049.2762269642	26049509.640220206
80520.39670825469	25902920.942954306
82018.8949920221	25764133.338138092
83545.28058382872	25622762.87238071
85100.07247122246	25478761.478200547
86683.79930019773	25332080.19357201
88296.99955494082	25182669.14527784
89940.22174092053	25030477.531951707
91614.0245713852	24875453.60680528
93318.9771573324	24717544.660033632
95055.65920101192	24556697.000893414
96824.66119303115	24392855.9394474
98626.5846131283	24225965.767969333
100462.04213468132	24065792.45393305
102331.65783302448	23932379.573227916
104236.06739764012	23796483.856111847
106175.9183482999	23658059.09657679
108151.87025522892	23517058.228712965
110164.59496336569	23373433.31070607
112214.77682079801	23227135.508536436
114303.11291144785	23078115.079374976
116430.31329208757	22926321.3546701
118597.10123376705	22771702.722919844
120804.21346773289	22614206.612123445
123052.40043592616	22453779.471906226
125342.42654613995	22290366.75531192
127675.07043192645	22153697.549969204
130051.12521734099	22023847.94687038
132471.39878661174	21891581.8205632
134936.71405883064	21756854.199139588
137447.90926775365	21619619.273756564
140005.8382468096	21479830.383060824
142611.37071941295	21337439.997323304
145265.39259467812	21192399.70227865
147968.80626863963	21044660.182663742
150722.53093107554	20894171.20545004
153527.5028780421	20740881.602763783
156384.67583022476	20584739.254488386
159295.0212572123	20436219.914119292
162259.5287078087	20312951.729258366
165279.2061464897	20187389.502502345
168355.08029612005	20059490.541341253
171488.19698705408	19929211.35875015
174679.62151272455	19796507.658403274
177930.43899185772	19661334.3196126
181241.75473742394	19523645.381986473
184614.69463245454	19383394.02980256
188050.40551285836	19240532.576089863
191550.0555573528	19095012.446414858
195114.83468466165	18946784.162365485
198745.9549580986	18795797.324728012
202444.65099768018	18671644.664130904
206212.18039991445	18553254.712061
210049.8241653915	18432661.50283833
213958.88713434213	18309824.033472374
217940.6984302958	18184700.53789997
221996.61191199525	18057248.472784482
226128.00663372793	17927424.503050443
230336.2873142131	17795184.48714933
234622.88481422624	17660483.46205088
238989.25662310526	17523275.627955146
243436.8873543108	17383514.332720187
247967.289250216	17241152.05599966
252582.00269627848	17107063.946649816
257282.59674479323	16996204.945623722
262070.66964838552	16883282.839725196
266947.8494034318	16768259.234221557
271915.7943036019	16651095.019847518
276976.1935036891	16531750.359507795
282130.76759394706	16410184.674731944
287381.2691851069	16286356.631877277
292729.4835042813	16160224.128075026
298177.22900196735	16031744.276914788
303726.3579703311	15900873.39386286
309378.75717301364	15767566.981408874
315136.34848664823	15631779.71393622
321001.08955431683	15522125.587577246
326974.97445117676	15417105.86339093
333060.03436245886	15310131.704267789
339258.33827409917	15201166.737841075
345571.9936762143	15090173.914848104
352003.1472796675	14977115.496533168
358553.9857459817	14861953.041815802
365226.7364308175	14744647.39422058
372023.6681413066	14625158.668563347
378947.09190746717	14503446.237389907
385999.36176797637	14379468.717162253
393182.87557057705	14253183.954187626
400500.07578736113	14135464.349698251
407953.45034524484	14038434.380285662
415545.53347188793	13939598.666632067
423278.90655735444	13838923.60352991
431156.19903182285	13736374.96037294
439180.0892596086	13631917.869517563
447353.3054498463	13525516.81442737
455678.6265841068	13417135.617597159
464158.8833612772	13306737.428252257
472796.9591600391	13194284.709818706
481595.79101923504	13079739.22716062
490558.37063650455	12963062.03357967
499687.7453854889	12844213.45757284
508987.0193519675	12749964.54428987
518459.3543892913	12659212.000623584
528107.971193433	12566770.536677593
537936.1503980698	12472608.7213581
547947.2336900292	12376694.538633304
558144.6249454955	12278995.376647647
568531.7913873753	12179478.016633317
579112.2647641759	12078108.621615669
589889.6425508494	11974852.724908127
600867.5891719692	11869675.21839324
612049.837247669	11762540.340585552
623440.1888627863	11653411.664472196
635042.5168595961	11552750.700573945
646860.7661546321	11469894.51666582
658898.9550799957	11385496.365076685
671161.1767496272	11299527.549525639
683651.6004510238	11211958.839689063
696374.4730628222	11122760.461262101
709334.1204987989	11031902.08583497
722534.9491787221	10939352.820581038
735981.4475265755	10845081.197752943
749678.1874966878	10749055.163983116
763629.8261282243	10651242.069385432
777841.1071286482	10551608.656453812
792316.8624866261	10450121.048754295
807062.0141149492	10371027.401087673
822081.575524054	10294368.771956487
837380.6535266489	10216283.512693252
852964.4499741016	10136745.07346846
868838.2635251193	10055726.410355745
885007.4914473438	9973199.9761367
901477.6314524917	9889137.710934466
918254.2835656281	9803511.032673128
935343.1520292377	9716290.827359455
952750.0472427299	9627447.439183846
970480.8877380306	9536950.660437064
988541.7021919573	9444769.721239237
1006938.6314760271	9360623.374847926
1025677.9307444209	9291311.780417008
1044765.9715608053	9220710.28541994
1064209.2440647245	9148794.884587716
1084014.359178331	9075541.12590917
1104188.0508541602	9000924.102317054
1124737.1783647507	8924918.443219356
1145668.7286348727	8847498.305873021
1166989.8186171474	8768637.366597183
1188707.6977119034	8688308.81182276
1210829.7502320393	8606485.328975603
1233363.4979137746	8523139.097189905
1256316.6024741214	8438241.777848806
1279696.8682159416	8373137.529396077
1303512.2446815087	8309555.997936644
1327770.829355429	8244791.203357971
1352480.8704178738	8178821.124932074
1377650.769549055	8111623.332121462
1403289.084785873	8043174.976952544
1429404.533431761	7973452.7862470355
1456005.9950206485	7902433.053708851
1483102.514336103	7830091.6318636965
1510703.3044866556	7756403.923848674
1538817.7500383465	7681344.875049094
1567455.410205595	7604888.964579607
1596626.022101425	7535801.345700847
1626339.5040481905	7478736.889111396
1656605.9589499151	7420610.453274951
1687435.6777273756	7361402.2745770365
1718839.1428171454	7301092.221598927
1750827.0317357269	7239659.788272774
1783410.220710006	7177084.08690934
1816599.7883753285	7113343.841095888
1850407.019542302	7048417.378462071
1884843.4090337954	6982282.623311013
1919920.6655932867	6914917.089113361
1955650.715865947	6846297.870861658
1992045.7084538713	6776401.63728231
2029118.0180466783	6723587.526887912
2066880.2496290822	6671569.584201701
2105345.242766708	6618583.578750928
2144526.0759716653	6564611.494722843
2184436.0711494284	6509634.98102731
2225088.7981283693	6453635.345057328
2266498.079273693	6396593.546333268
2308677.994187172	6338490.190028949
2351642.884494346	6279305.520377184
2395407.358720879	6219019.413952563
2439986.29725955	6157611.372829342
2485394.857429798	6095060.517611875
2531648.478631358	6039089.342660181
2578762.8875937983	5992650.449219266
2626754.1037238385	5945347.320069551
2675638.4445520453	5897163.871637453
2725432.531281028	5848083.721031331
2776153.2944368036	5798090.180471147
2827817.979625338	5747166.251614448
2880444.1533962977	5695294.619776701
2934049.709215787	5642457.648044192
2988652.873550383	5588637.371277218
3044272.2120643063	5533815.490001758
3100926.6359319235	5477973.364187507
3158635.408267819	5421092.006909966
3217418.1506763715	5378690.534466296
3277294.849923382	5336545.4421759825
3338285.8647317644	5293616.0225469
3400411.9327037027	5249887.679113834
3463694.1773717343	5205345.543768831
3528154.1153808828	5159974.47170595
3593813.6638046256	5113759.036271821
3660695.147596906	5066683.523720424
3728821.30718283	5018731.927870276
3798215.306190736	4969887.944662097
3868900.7393279755	4920134.966615323
3940901.6404034477	4869456.077181334
4014242.490499326	4824536.602069153
4088948.226294856	4787049.071832596
4165044.248545185	4748863.8922796035
4242556.430717777	4709968.080037696
4321511.127789762	4670348.410111613
4401935.1852088785	4629991.411386677
4483855.948021181	4588883.3620484965
4567301.270168747	4547010.284917339
4652299.523960189	4504357.9426958235
4738879.609717651	4460911.833128015
4827070.965603188	4416657.184068528
4916903.577628021	4371578.948459861
5008407.989848212	4325661.799216178
5101615.314749833	4291861.4015860995
5196557.243827657	4257942.022016541
5293266.058360566	4223391.397021604
5391774.640387494	4188197.779016525
5492116.483887789	4152349.201791958
5594325.706169377	4115833.476445396
5698437.0594691355	4078638.1872367673
5804485.942768984	4040750.687366959
5912508.413831869	4002158.0946777984
6022541.201461928	3962847.2872719234
6134621.717992506	3922804.8990512607
6248788.072006888	3882017.3151723607
6365079.081295578	3846198.0314675737
6483534.286054714	3816101.0246762666
6604193.962330305	3785443.907467381
6727099.135712336	3754216.25609075
6852291.595284057	3722407.452808428
6979813.907830667	3690006.6822845605
7109709.432312423	3657002.9279080657
7242022.334607315	3623384.9680468314
7376797.60252773	3589141.372232287
7514081.061116962	3554260.4972728817
7653919.388230155	3518730.483295288
7796360.130405221	3482539.249711935
7941451.71902934	3445674.4911134327
8089243.486805938	3418858.2817058847
8239785.684528512	3391680.156071921
8393129.498166373	3363996.240895387
8549327.066268368	3335797.1233468386
8708431.497690724	3307073.215422459
8870496.889654402	3277814.750684065
9035578.34613892	3248011.7809383865
9203731.99661823	3217654.172854584
9375015.01514529	3186731.604518816
9549485.639791967	3155233.561924661
9727203.192450536	3123149.3353982484
9908228.099003786	3090468.015956857
10092621.909870483	3062027.154833848
10280447.320933098	3037950.5769249797
10471768.194855202	3013425.929804455
10666649.582795387	2988444.8748280006
10865157.746525371	2962998.9181677597
11067360.180959744	2937079.4079242866
11273325.63710487	2910677.531184827
11483124.14543511	2883784.311026807
11696827.039703846	2856390.603465607
11914506.981197748	2828487.094345488
12136237.983442418	2800064.296172692
12362095.437367693	2771112.5448895944
12592156.13694151	2741730.017365852
12826498.3052806	2720413.4226434934
13065201.621247198	2698700.122466205
13308347.24654076	2676582.7340779677
13556017.853293689	2654053.7373284223
13808297.652180923	2631105.472115923
14065272.421052363	2607730.1357830353
14327029.534098294	2583919.78046354
14593657.991557576	2559666.310380072
14865248.449978571	2534961.4790914794
15141893.25304352	2509796.8866889323
15423686.462966273	2484163.9769398686
15710723.892474487	2458054.034378781
16003103.137387017	2435535.078841187
16300923.609797413	2416319.8240775405
16604286.571875297	2396746.9701531515
16913295.17029647	2376809.862086793
17228054.471313924	2356501.721046901
17548671.49648152	2335815.6420467026
17875255.259042352	2314744.591596452
18207916.800994623	2293281.405311958
18546769.230846975	2271418.7854786194
18891927.762076646	2249149.2985701277
19243509.75230332	2226465.372720981
19601634.743191857	2203359.2951519773
19966424.501097932	2180082.311222917
20338003.0584698	2163084.073959331
20716496.75602067	2145769.496607918
21102034.285685964	2128132.692025814
21494746.734379806	2110167.663509432
21894767.628566206	2091868.3027555032
