Frequency [GHz]	Zx real [Ohm/m]	Zy real [Ohm/m]
1.000000000000000166e-10	2.161519940673078963e+02	3.140354598943021074e+02
1.032794731918951654e-10	2.215189943460785855e+02	3.222171106185874692e+02
1.066664958279539403e-10	2.270620039602005136e+02	3.306670763850302137e+02
1.101645949633656381e-10	2.327867950886416395e+02	3.393941565135077667e+02
1.137774133221491146e-10	2.386993292074320721e+02	3.484074388952339518e+02
1.175087130904807540e-10	2.448057632976098716e+02	3.577163094563787240e+02
1.213623798344240958e-10	2.511124562567558485e+02	3.673304619320444999e+02
1.253424265461399975e-10	2.576259755207920534e+02	3.772599079607775252e+02
1.294529978227915867e-10	2.643531039029413137e+02	3.875149875101266730e+02
1.336983741824946476e-10	2.713008466569675079e+02	3.981063796441040950e+02
1.380829765218092491e-10	2.784764387720538821e+02	4.090451136437638979e+02
1.426113707194128486e-10	2.858873525069141124e+02	4.203425804924752356e+02
1.472882723907502473e-10	2.935413051709837191e+02	4.320105447378533086e+02
1.521185517986104510e-10	3.014462671607918764e+02	4.440611567426985857e+02
1.571072389247450498e-10	3.096104702598851759e+02	4.565069653377019563e+02
1.622595287078087593e-10	3.180424162109451345e+02	4.693609308890930834e+02
1.675807864530767868e-10	3.267508855690251721e+02	4.826364387948374883e+02
1.730765534195724819e-10	3.357449468451278562e+02	4.963473134234386066e+02
1.787525525904235329e-10	3.450339659496430613e+02	5.105078325098592700e+02
1.846146946324547531e-10	3.546276159454807271e+02	5.251327420235521686e+02
1.906690840512252406e-10	3.645358871210562484e+02	5.402372715240855996e+02
1.969220255479172543e-10	3.747690973936149135e+02	5.558371500203508049e+02
2.033800305846981002e-10	3.853379030537324184e+02	5.719486223498693107e+02
2.100498241653915480e-10	3.962533098621771614e+02	5.885884660952541481e+02
2.169383518385184289e-10	4.075266845106909273e+02	6.057740090554419794e+02
2.240527869300018610e-10	4.191697664586247356e+02	6.235231472898907441e+02
2.314005380130653023e-10	4.311946801577514066e+02	6.418543637545308229e+02
2.389892566231049743e-10	4.436139476779894721e+02	6.607867475488769742e+02
2.468268452255692806e-10	4.564405017471834753e+02	6.803400137943452819e+02
2.549214654451423314e-10	4.696876992185206063e+02	7.005345241644736234e+02
2.632815465648021228e-10	4.833693349796077428e+02	7.213913080884251485e+02
2.719157943036017723e-10	4.974996563176922564e+02	7.429320846498537776e+02
2.808331998823172083e-10	5.120933777559880582e+02	7.651792852039407080e+02
2.900430493863991314e-10	5.271656963765526598e+02	7.881560767361459057e+02
2.995549334359813486e-10	5.427323076456756326e+02	8.118863859870075430e+02
3.093787571730138678e-10	5.588094217582561214e+02	8.363949243681050802e+02
3.195247505759212065e-10	5.754137805181887870e+02	8.617072136951356924e+02
3.300034791125284578e-10	5.925626747723398466e+02	8.878496127649015079e+02
3.408258547423451742e-10	6.102739624162620657e+02	9.148493448038785800e+02
3.520031472796679687e-10	6.285660869904064612e+02	9.427345258169575573e+02
3.635469961293320139e-10	6.474580968861877182e+02	9.715341938658716572e+02
3.754694224073336536e-10	6.669696651819114095e+02	1.001278339307804913e+03
3.877828414589456106e-10	6.871211101292113881e+02	1.031997936025664103e+03
4.005000757873611052e-10	7.079334163113377372e+02	1.063724973682544260e+03
4.136343684063274911e-10	7.294282564953222163e+02	1.096492491033964143e+03
4.271993966306778827e-10	7.516280142007811946e+02	1.130334610332573675e+03
4.412092863191189219e-10	7.745558070088562772e+02	1.165286572861150262e+03
4.556786265841064474e-10	7.982355106355656744e+02	1.201384775630892818e+03
4.706224849841281415e-10	8.226917837946326699e+02	1.238666809283224211e+03
4.860564232142136024e-10	8.479500938756884807e+02	1.277171497234578055e+03
5.019965133110081441e-10	8.740367434645779667e+02	1.316938936104919321e+03
5.184593543892912175e-10	9.009788977333989806e+02	1.358010537472116539e+03
5.354620899273606527e-10	9.288046127287848321e+02	1.400429070995633083e+03
5.530224256192902378e-10	9.575428645878974976e+02	1.444238708954448612e+03
5.711586478126431938e-10	9.872235797125491672e+02	1.489485072245589663e+03
5.898896425508497150e-10	1.017877665932876312e+03	1.536215277891170672e+03
6.092349152400710261e-10	1.049537044693019880e+03	1.584477988103416692e+03
6.292146109610343618e-10	1.082234684292322754e+03	1.634323460958755049e+03
6.498495354469890483e-10	1.116004634216667000e+03	1.685803602733757998e+03
6.711611767496282870e-10	1.150882060595696885e+03	1.738972021957421248e+03
6.931717276155404727e-10	1.186903282822849860e+03	1.793884085236079272e+03
7.159041085964887260e-10	1.224105811376335396e+03	1.850596974909077289e+03
7.393819919175865964e-10	1.262528386880439712e+03	1.909169748595250439e+03
7.636298261282244400e-10	1.302211020447836745e+03	1.969663400692211326e+03
7.886728615614152294e-10	1.343195035344914459e+03	2.032140925892489804e+03
8.145371766280743462e-10	1.385523110023504387e+03	2.096667384782671434e+03
8.412497049736117954e-10	1.429239322563823862e+03	2.163309971593835598e+03
8.688382635251186617e-10	1.474389196574914877e+03	2.232138084173857351e+03
8.973315814583522479e-10	1.521019748600374214e+03	2.303223396254428280e+03
9.267593301146878953e-10	1.569179537078741305e+03	2.376639932088056412e+03
9.571521538991863169e-10	1.618918712909529631e+03	2.452464143532767139e+03
9.885417021919573871e-10	1.670289071677558468e+03	2.530774989664772420e+03
1.020960662306046580e-09	1.713618350773375823e+03	2.599478727621191865e+03
1.054442793526168950e-09	1.752877588293722511e+03	2.663561602797375144e+03
1.089022962263730067e-09	1.793424321983891332e+03	2.729746058685557273e+03
1.124737178364752061e-09	1.835300774935618847e+03	2.798101016061794780e+03
1.161622632608501755e-09	1.878550554935613718e+03	2.868697655940515688e+03
1.199717735435884489e-09	1.923218699876262690e+03	2.941609493698438655e+03
1.239062156947916503e-09	1.969351724655557746e+03	3.016912455629351825e+03
1.279696868215940940e-09	2.016997669615099085e+03	3.094684958009490856e+03
1.321664183946605026e-09	2.066206150566614724e+03	3.175007988755854058e+03
1.365007806546013663e-09	2.117028410459073257e+03	3.257965191762460108e+03
1.409772871628966933e-09	2.169517372740221163e+03	3.343642954002415991e+03
1.456005995020649598e-09	2.223727696468082740e+03	3.432130495486445398e+03
1.503755321299737753e-09	2.279715833229838609e+03	3.523519962171610132e+03
1.553070573933460069e-09	2.337540085927338623e+03	3.617906521916932888e+03
1.604003107056820079e-09	2.397260669490466626e+03	3.715388463585853970e+03
1.656605958949914401e-09	2.458939773581590998e+03	3.816067299398746854e+03
1.710933907269014249e-09	2.522641627356384106e+03	3.920047870642034923e+03
1.767043526088946692e-09	2.588432566348462842e+03	4.027438456844028224e+03
1.824993244816152494e-09	2.656381101547482103e+03	4.138350888531132114e+03
1.884843409033795523e-09	2.726557990742638594e+03	4.252900663681894912e+03
1.946656343342262358e-09	2.799036312205857939e+03	4.371207068000104300e+03
2.010496416260498236e-09	2.873891540791396437e+03	4.493393299132221728e+03
2.076430107255774870e-09	2.951201626531132206e+03	4.619586594958506794e+03
2.144526075971667793e-09	3.031047075807331566e+03	4.749918366091382268e+03
2.214855233726359314e-09	3.113511035187492780e+03	4.884524332719081940e+03
2.287490817355702788e-09	3.198679378008502681e+03	5.023544665937031823e+03
2.362508465477946229e-09	3.286640793800307620e+03	5.167124133714143682e+03
2.439986297259550245e-09	3.377486880642217784e+03	5.315412251646074765e+03
2.520004993764092080e-09	3.471312240547992587e+03	5.468563438652347031e+03
2.602647881969005809e-09	3.568214577979078058e+03	5.626737177779561534e+03
2.688001021537606561e-09	3.668294801588534938e+03	5.790098182278069544e+03
2.776153294436799262e-09	3.771657129301650457e+03	5.958816567125114489e+03
2.867196497493770032e-09	3.878409196842640995e+03	6.133068026173023100e+03
2.961225437988034610e-09	3.988662169820428517e+03	6.313034015106888546e+03
3.058338032378433485e-09	4.102530859490292642e+03	6.498901940402372929e+03
3.158635408267817403e-09	4.220133842311840453e+03	6.690865354480250971e+03
3.262222009711669644e-09	4.341593583427890735e+03	6.889124157261061555e+03
3.369205705980266915e-09	4.467036564192786500e+03	7.093884804329640247e+03
3.479697903887691433e-09	4.596593413882978894e+03	7.305360521926382717e+03
3.593813663804627762e-09	4.730399045727031080e+03	7.523771528989082981e+03
3.711671819475765297e-09	4.868592797396649985e+03	7.749345266476548204e+03
3.833395101766601886e-09	5.011318576105151806e+03	7.982316634212876124e+03
3.959110266468459240e-09	5.158725008464319217e+03	8.222928235498902723e+03
4.088948226294862618e-09	5.310965595255836888e+03	8.471430629745698752e+03
4.223044187206674123e-09	5.468198871278364095e+03	8.728082593393031857e+03
4.361537789208003199e-09	5.630588570436788359e+03	8.993151389384651338e+03
4.504573251759458750e-09	5.798303796245516423e+03	9.266913045480900109e+03
4.652299523960189308e-09	5.971519197923364118e+03	9.549652641698510706e+03
4.804870439655131104e-09	6.150415152263472010e+03	9.841664607176951904e+03
4.962444877628916452e-09	6.335177951467549065e+03	1.014325302678038133e+04
5.125186927053329472e-09	6.525999997140115738e+03	1.045473195775456406e+04
5.293266058360561204e-09	6.723080000644745269e+03	1.077642575676845445e+04
5.466857299720180771e-09	6.926623190030892147e+03	1.110866941768099059e+04
5.646141419303669251e-09	7.136841523746888925e+03	1.145180892038492675e+04
5.831305113526221869e-09	7.353953911361545579e+03	1.180620159109083761e+04
6.022541201461928965e-09	7.578186441524314432e+03	1.217221647442659560e+04
6.220048825634711276e-09	7.809772617401274147e+03	1.255023471773968777e+04
6.424033659394191079e-09	8.048953599832255350e+03	1.294064996800270819e+04
6.634708121092347870e-09	8.295978458462173876e+03	1.334386878173518198e+04
6.852291595284060743e-09	8.551104431108175049e+03	1.376031104836867962e+04
7.077010661181889919e-09	8.814597191632668910e+03	1.419041042749615190e+04
7.309099328602911004e-09	9.086731126601142023e+03	1.463461480046061115e+04
7.548799281653435948e-09	9.367789621012958378e+03	1.509338673675367318e+04
7.796360130405233414e-09	9.658065353402553228e+03	1.556720397570939531e+04
8.052039670825474778e-09	9.957860600618441822e+03	1.605655992399524985e+04
8.316104153230961616e-09	1.026748755259735481e+04	1.656196416941809002e+04
8.588828559546249041e-09	1.058726863746129311e+04	1.708394301158026428e+04
8.870496889654407999e-09	1.091753685727610355e+04	1.762304000993852242e+04
9.161402457138517586e-09	1.125863613482108121e+04	1.817981654983623957e+04
9.461848194721997291e-09	1.161092167173089547e+04	1.875485242709866361e+04
9.772146969725725887e-09	1.197476031838259769e+04	1.934874645179969957e+04
1.009262190987047331e-08	1.233476496093066089e+04	1.994194620132905766e+04
1.042360673976401127e-08	1.266651903867218607e+04	2.050335144595094243e+04
1.076544612842315905e-08	1.300915290245627330e+04	2.108316782506811069e+04
1.111849604819270880e-08	1.336302335194950319e+04	2.168199912690062774e+04
1.148312414543511117e-08	1.372849888796790401e+04	2.230046894074141892e+04
1.185971012337669343e-08	1.410596009621296253e+04	2.293922130632707922e+04
1.224864613750930795e-08	1.449580004359222221e+04	2.359892138450472703e+04
1.265033720395903769e-08	1.489570590642319621e+04	2.427671202104937038e+04
1.306520162124721228e-08	1.529306909152304252e+04	2.495631995200506572e+04
1.349367140588306343e-08	1.570346369575269819e+04	2.565821544286643984e+04
1.393619274224142065e-08	1.612731708100905234e+04	2.638312940818574498e+04
1.439322644719406651e-08	1.656507062440782829e+04	2.713181673266199505e+04
1.486524844997857277e-08	1.701718017790895101e+04	2.790505705723558276e+04
1.535275028780422776e-08	1.748411654301512317e+04	2.870365559096245852e+04
1.585623961771137302e-08	1.796604329677757050e+04	2.952802009161319438e+04
1.637624074521687477e-08	1.844114787572389469e+04	3.034969636685048681e+04
1.691329517029648562e-08	1.893183338197024568e+04	3.119831929525837768e+04
1.746796215127245689e-08	1.943861078785044811e+04	3.207477258510365573e+04
1.804081928719382751e-08	1.996200782289906783e+04	3.297996892562889116e+04
1.863246311931559514e-08	2.050256952339928466e+04	3.391485093747566862e+04
1.924350975230330612e-08	2.106085879995306095e+04	3.488039215427680756e+04
1.987459549580983990e-08	2.163745702366466139e+04	3.587759803643967462e+04
2.052637752709252173e-08	2.220785690922491995e+04	3.687424289395385858e+04
2.119953457536071000e-08	2.279343640883509579e+04	3.789890035022803931e+04
2.189476762856620985e-08	2.339821983115222247e+04	3.895716117308950197e+04
2.261280066337277307e-08	2.402283696367326047e+04	4.005012737593702332e+04
2.335438139906479724e-08	2.466793824760734424e+04	4.117893711240345147e+04
2.412028207618007283e-08	2.533419545520858446e+04	4.234476586156474514e+04
2.491130026067788373e-08	2.602230238932217981e+04	4.354882765201818984e+04
2.572825967447932303e-08	2.670657325323567784e+04	4.475706513653125148e+04
2.657201105324503850e-08	2.740399686626584298e+04	4.599250479445389647e+04
2.744343303228365032e-08	2.812429229971930181e+04	4.726846036476019071e+04
2.834343306151309448e-08	2.886820962881529340e+04	4.858626055593513593e+04
2.927294835042816131e-08	2.963652352728884580e+04	4.994727765110239852e+04
3.023294684405776334e-08	3.043003407409244755e+04	5.135292893704278686e+04
3.122442823092858392e-08	3.124956758655335216e+04	5.280467818007717142e+04
3.224842498408442807e-08	3.206917113725172021e+04	5.426780895187876740e+04
3.330600343624588813e-08	3.289802612697288714e+04	5.575509986869210843e+04
3.439826489022924478e-08	3.375406319388163683e+04	5.729116609240783873e+04
3.552634676578139226e-08	3.463817376691235404e+04	5.887760719614008121e+04
3.669142378402493899e-08	3.555127850917234900e+04	6.051607521057447593e+04
3.789470919074667737e-08	3.649432827666866069e+04	6.220827634429998579e+04
3.913745601980383687e-08	3.746830510847624100e+04	6.395597276055896509e+04
4.042095839796305955e-08	3.844839948588832340e+04	6.572567868967133109e+04
4.174655289253134782e-08	3.943121086392674624e+04	6.751319248395461182e+04
4.311561990318228626e-08	4.044625327763485984e+04	6.935932731392288406e+04
4.452958509942655287e-08	4.149458373518686858e+04	7.126600564072614361e+04
4.598992090522439315e-08	4.257729390905676701e+04	7.323521297211259662e+04
4.749814803228499868e-08	4.369551127282464586e+04	7.526899993002470001e+04
4.905583706365045989e-08	4.485040027526441554e+04	7.736948438600181544e+04
5.066461008921269181e-08	4.602038011178363377e+04	7.950730515325926535e+04
5.232614239486661694e-08	4.718291307246320503e+04	8.165179312587894674e+04
5.404216420705915059e-08	4.838357098993521504e+04	8.386660900666410453e+04
5.581446249454960394e-08	4.962360416193708807e+04	8.615405918050945911e+04
5.764488282925879445e-08	5.090430388938541000e+04	8.851652566958410898e+04
5.953533130814369715e-08	5.222700382106402685e+04	9.095646861383540090e+04
6.148777653810024108e-08	5.359308134241127118e+04	9.347642883284093114e+04
6.350425168595962148e-08	5.498716904524865822e+04	9.605545275918437983e+04
6.558685659571428548e-08	5.635872149441170041e+04	9.862320777857824578e+04
6.773775997517751128e-08	5.777525363845787797e+04	1.012751716354667878e+05
6.995920165435375620e-08	5.923824057442258345e+04	1.040141059361006628e+05
7.225349491787214948e-08	6.074920577475317987e+04	1.068428628528674308e+05
7.462302891391107044e-08	6.230972267376747914e+04	1.097643880943834229e+05
7.707027114212294845e-08	6.392141630613994494e+04	1.127817239729893918e+05
7.959777002314985573e-08	6.557930065525246027e+04	1.158885086806470645e+05
8.220815755240541849e-08	6.719297013878794678e+04	1.189565897668381658e+05
8.490415204088747078e-08	6.885955948044177785e+04	1.221252877497565059e+05
8.768856094587425811e-08	7.058080417277410743e+04	1.253979023335567617e+05
9.056428379445295063e-08	7.235849662335847097e+04	1.287778414353069238e+05
9.353431520292386860e-08	7.419448802129403339e+04	1.322686247338012618e+05
9.660174799522647250e-08	7.609069026493038109e+04	1.358738873347568442e+05
9.976977642363202159e-08	7.804907795281091239e+04	1.395973835562081949e+05
1.030416994950587396e-07	7.995110893546814623e+04	1.432681034701254393e+05
1.064209244064724761e-07	8.190609049765448435e+04	1.470455324813127227e+05
1.099109700929497372e-07	8.392518515607912559e+04	1.509468412642646581e+05
1.135154708920999096e-07	8.601049548254581168e+04	1.549760924228865188e+05
1.172381803286598596e-07	8.816419300213678798e+04	1.591374817930895369e+05
1.210829750232039531e-07	9.038852045451726008e+04	1.634353428120987664e+05
1.250538587290391570e-07	9.268579412939857866e+04	1.678741510310514132e+05
1.291549665014884007e-07	9.493177290012867888e+04	1.722714441531811608e+05
1.333905690039058854e-07	9.721778628912994463e+04	1.767632736311493791e+05
1.377650769549053468e-07	9.957876887438663107e+04	1.814024114526731428e+05
1.422830457214352017e-07	1.020171792505921330e+05	1.861936885553889151e+05
1.469491800624817218e-07	1.045355566413937340e+05	1.911420943062377628e+05
1.517683390283405561e-07	1.071365235435973736e+05	1.962527816971118154e+05
1.567455410205594968e-07	1.098227884580888494e+05	2.015310727108910796e+05
1.618859690178197646e-07	1.124683527624089766e+05	2.067883213184640335e+05
1.671949759731990056e-07	1.151323877191325300e+05	2.121150421281703166e+05
1.726780903884356132e-07	1.178837889880844450e+05	2.176164513188378769e+05
1.783410220710008120e-07	1.207254217240530852e+05	2.232982777490897570e+05
1.841896680799711039e-07	1.236602450438099477e+05	2.291664381539318128e+05
1.902301188668944219e-07	1.266913151075677451e+05	2.352270433061080985e+05
1.964686646180446931e-07	1.298217883014941181e+05	2.414864043795167527e+05
2.029118018046678038e-07	1.329298323872331239e+05	2.477583210078594857e+05
2.095662399480432992e-07	1.360231262022254814e+05	2.540561682680189551e+05
2.164389086064020114e-07	1.392178637586270634e+05	2.605605517407418520e+05
2.235369645909794139e-07	1.425173718767422251e+05	2.672782447257507592e+05
2.308677994187169850e-07	1.459250864790555206e+05	2.742162426513170940e+05
2.384390470093720426e-07	1.494445561682078405e+05	2.813817703589064186e+05
2.462585916350547006e-07	1.530794459223127924e+05	2.887822896267239703e+05
2.543345761304648365e-07	1.567205897176916769e+05	2.962473388186474331e+05
2.626754103723835758e-07	1.602983309652674943e+05	3.036688350237411796e+05
2.712897800372467241e-07	1.639934032779330446e+05	3.113337172073187539e+05
2.801866556459195443e-07	1.678096544965134817e+05	3.192499671472968766e+05
2.893753019050950594e-07	1.717510586507426342e+05	3.274258283818600466e+05
2.988652873550382326e-07	1.758217200975939631e+05	3.358698147938171169e+05
3.086664943337274455e-07	1.800258777953277749e+05	3.445907194764820160e+05
3.187891292677645596e-07	1.842788178889027331e+05	3.534534760743061197e+05
3.292437333007768907e-07	1.883996033767381741e+05	3.621673976898161345e+05
3.400411932703706463e-07	1.926555289199427061e+05	3.711670900286695687e+05
3.511927530450727317e-07	1.970510264004035853e+05	3.804619248651287053e+05
3.627100252330649086e-07	2.015906730423868285e+05	3.900615813182808342e+05
3.746050032748993774e-07	2.062791961790004862e+05	3.999760559313277481e+05
3.868900739327976195e-07	2.111214781749752001e+05	4.102156730814268230e+05
3.995780301895269929e-07	2.160731621609423892e+05	4.207089639166223933e+05
4.126820845702951630e-07	2.207981501706744311e+05	4.308994828983473126e+05
4.262158829015325345e-07	2.256780928955060372e+05	4.414241972181932651e+05
4.401935185208874400e-07	2.307180720337781822e+05	4.522940667226817459e+05
4.546295469532399562e-07	2.359233359367670782e+05	4.635204106835638522e+05
4.695390010680058238e-07	2.412993050740218896e+05	4.751149195850730757e+05
4.849374067335232931e-07	2.468515776779374864e+05	4.870896672977392445e+05
5.008407989848212921e-07	2.525859355734396668e+05	4.994571236514397315e+05
5.172657387216018967e-07	2.579888278055397968e+05	5.113409835898153833e+05
