Frequency [GHz]	Zx imag [Ohm/m]	Zy imag [Ohm/m]
1.000000000000000166e-10	1.184328014837417193e+07	2.890499889171821624e+07
1.032794731918951654e-10	1.184327909978095628e+07	2.890499759191102535e+07
1.066664958279539403e-10	1.184327801679940708e+07	2.890499624947700277e+07
1.101645949633656381e-10	1.184327689830176905e+07	2.890499486301821843e+07
1.137774133221491146e-10	1.184327574312329851e+07	2.890499343109089136e+07
1.175087130904807540e-10	1.184327455006106012e+07	2.890499195220388845e+07
1.213623798344240958e-10	1.184327331787266769e+07	2.890499042481718585e+07
1.253424265461399975e-10	1.184327204527498409e+07	2.890498884734024480e+07
1.294529978227915867e-10	1.184327073094280250e+07	2.890498721813037246e+07
1.336983741824946476e-10	1.184326937350744940e+07	2.890498553549099341e+07
1.380829765218092491e-10	1.184326797155536711e+07	2.890498379766991362e+07
1.426113707194128486e-10	1.184326652362664416e+07	2.890498200285745040e+07
1.472882723907502473e-10	1.184326502821348421e+07	2.890498014918459952e+07
1.521185517986104510e-10	1.184326348375865258e+07	2.890497823472104222e+07
1.571072389247450498e-10	1.184326188865383901e+07	2.890497625747316703e+07
1.622595287078087593e-10	1.184326024123798870e+07	2.890497421538197622e+07
1.675807864530767868e-10	1.184325853979557753e+07	2.890497210632095486e+07
1.730765534195724819e-10	1.184325678255482018e+07	2.890496992809383944e+07
1.787525525904235329e-10	1.184325496768582240e+07	2.890496767843234912e+07
1.846146946324547531e-10	1.184325309329868294e+07	2.890496535499381647e+07
1.906690840512252406e-10	1.184325115744151734e+07	2.890496295535873622e+07
1.969220255479172543e-10	1.184324915809843689e+07	2.890496047702827305e+07
2.033800305846981002e-10	1.184324709318743646e+07	2.890495791742162034e+07
2.100498241653915480e-10	1.184324496055823378e+07	2.890495527387335896e+07
2.169383518385184289e-10	1.184324275799002685e+07	2.890495254363063723e+07
2.240527869300018610e-10	1.184324048318918608e+07	2.890494972385033593e+07
2.314005380130653023e-10	1.184323813378686085e+07	2.890494681159609929e+07
2.389892566231049743e-10	1.184323570733651705e+07	2.890494380383526534e+07
2.468268452255692806e-10	1.184323320131138526e+07	2.890494069743572176e+07
2.549214654451423314e-10	1.184323061310183071e+07	2.890493748916263506e+07
2.632815465648021228e-10	1.184322794001263939e+07	2.890493417567509413e+07
2.719157943036017723e-10	1.184322517926020175e+07	2.890493075352261588e+07
2.808331998823172083e-10	1.184322232796962932e+07	2.890492721914156526e+07
2.900430493863991314e-10	1.184321938317174651e+07	2.890492356885143742e+07
2.995549334359813486e-10	1.184321634180000611e+07	2.890491979885102063e+07
3.093787571730138678e-10	1.184321320068729483e+07	2.890491590521445870e+07
3.195247505759212065e-10	1.184320995656263642e+07	2.890491188388711959e+07
3.300034791125284578e-10	1.184320660604777746e+07	2.890490773068143427e+07
3.408258547423451742e-10	1.184320314565368183e+07	2.890490344127247483e+07
3.520031472796679687e-10	1.184319957177689113e+07	2.890489901119350642e+07
3.635469961293320139e-10	1.184319588069576770e+07	2.890489443583128229e+07
3.754694224073336536e-10	1.184319206856662780e+07	2.890488971042128280e+07
3.877828414589456106e-10	1.184318813141973689e+07	2.890488483004272729e+07
4.005000757873611052e-10	1.184318406515516900e+07	2.890487978961346671e+07
4.136343684063274911e-10	1.184317986553854309e+07	2.890487458388467506e+07
4.271993966306778827e-10	1.184317552819661796e+07	2.890486920743541047e+07
4.412092863191189219e-10	1.184317104861272499e+07	2.890486365466693044e+07
4.556786265841064474e-10	1.184316642212207988e+07	2.890485791979689524e+07
4.706224849841281415e-10	1.184316164390691184e+07	2.890485199685333669e+07
4.860564232142136024e-10	1.184315670899146236e+07	2.890484587966842949e+07
5.019965133110081441e-10	1.184315161223678105e+07	2.890483956187208369e+07
5.184593543892912175e-10	1.184314634833539650e+07	2.890483303688530251e+07
5.354620899273606527e-10	1.184314091180577874e+07	2.890482629791332781e+07
5.530224256192902378e-10	1.184313529698663019e+07	2.890481933793857694e+07
5.711586478126431938e-10	1.184312949803099036e+07	2.890481214971331507e+07
5.898896425508497150e-10	1.184312350890015624e+07	2.890480472575213388e+07
6.092349152400710261e-10	1.184311732335738093e+07	2.890479705832413584e+07
6.292146109610343618e-10	1.184311093496139161e+07	2.890478913944489136e+07
6.498495354469890483e-10	1.184310433705966547e+07	2.890478096086813137e+07
6.711611767496282870e-10	1.184309752278152294e+07	2.890477251407713443e+07
6.931717276155404727e-10	1.184309048503095284e+07	2.890476379027588665e+07
7.159041085964887260e-10	1.184308321647924185e+07	2.890475478037992120e+07
7.393819919175865964e-10	1.184307570955732465e+07	2.890474547500683367e+07
7.636298261282244400e-10	1.184306795644791611e+07	2.890473586446652934e+07
7.886728615614152294e-10	1.184305994907736219e+07	2.890472593875112757e+07
8.145371766280743462e-10	1.184305167910723761e+07	2.890471568752455711e+07
8.412497049736117954e-10	1.184304313792566210e+07	2.890470510011175647e+07
8.688382635251186617e-10	1.184303431663832441e+07	2.890469416548758745e+07
8.973315814583522479e-10	1.184302520605923422e+07	2.890468287226535752e+07
9.267593301146878953e-10	1.184301579670114443e+07	2.890467120868492499e+07
9.571521538991863169e-10	1.184300607876568101e+07	2.890465916260050237e+07
9.885417021919573871e-10	1.184299604213312641e+07	2.890464672146796808e+07
1.020960662306046580e-09	1.184298589118220471e+07	2.890463388603563607e+07
1.054442793526168950e-09	1.184297552862347849e+07	2.890462063740569353e+07
1.089022962263730067e-09	1.184296482622741535e+07	2.890460695429048687e+07
1.124737178364752061e-09	1.184295377284914441e+07	2.890459282244118303e+07
1.161622632608501755e-09	1.184294235697829537e+07	2.890457822714166716e+07
1.199717735435884489e-09	1.184293056672701985e+07	2.890456315319322050e+07
1.239062156947916503e-09	1.184291838981761597e+07	2.890454758489867300e+07
1.279696868215940940e-09	1.184290581356973574e+07	2.890453150604608282e+07
1.321664183946605026e-09	1.184289282488717325e+07	2.890451489989182726e+07
1.365007806546013663e-09	1.184287941024425067e+07	2.890449774914319813e+07
1.409772871628966933e-09	1.184286555567170866e+07	2.890448003594036400e+07
1.456005995020649598e-09	1.184285124674217589e+07	2.890446174183779210e+07
1.503755321299737753e-09	1.184283646855513379e+07	2.890444284778503329e+07
1.553070573933460069e-09	1.184282120572140813e+07	2.890442333410687745e+07
1.604003107056820079e-09	1.184280544234714471e+07	2.890440318048287556e+07
1.656605958949914401e-09	1.184278916201724671e+07	2.890438236592618003e+07
1.710933907269014249e-09	1.184277234777829424e+07	2.890436086876167729e+07
1.767043526088946692e-09	1.184275498212088272e+07	2.890433866660342366e+07
1.824993244816152494e-09	1.184273704696139134e+07	2.890431573633134738e+07
1.884843409033795523e-09	1.184271852362315357e+07	2.890429205406714231e+07
1.946656343342262358e-09	1.184269939281700365e+07	2.890426759514943510e+07
2.010496416260498236e-09	1.184267963462119363e+07	2.890424233410807699e+07
2.076430107255774870e-09	1.184265922846065089e+07	2.890421624463763833e+07
2.144526075971667793e-09	1.184263815308554284e+07	2.890418929957001284e+07
2.214855233726359314e-09	1.184261638654915802e+07	2.890416147084611654e+07
2.287490817355702788e-09	1.184259390618504770e+07	2.890413272948667780e+07
2.362508465477946229e-09	1.184257068858342245e+07	2.890410304556206614e+07
2.439986297259550245e-09	1.184254670956677571e+07	2.890407238816110417e+07
2.520004993764092080e-09	1.184252194416470639e+07	2.890404072535889223e+07
2.602647881969005809e-09	1.184249636658791639e+07	2.890400802418357134e+07
2.688001021537606561e-09	1.184246995020135306e+07	2.890397425058197230e+07
2.776153294436799262e-09	1.184244266749647260e+07	2.890393936938416213e+07
2.867196497493770032e-09	1.184241449006260000e+07	2.890390334426682442e+07
2.961225437988034610e-09	1.184238538855733722e+07	2.890386613771541789e+07
3.058338032378433485e-09	1.184235533267601207e+07	2.890382771098513156e+07
3.158635408267817403e-09	1.184232429112011380e+07	2.890378802406053245e+07
3.262222009711669644e-09	1.184229223156471364e+07	2.890374703561387584e+07
3.369205705980266915e-09	1.184225912062478811e+07	2.890370470296210051e+07
3.479697903887691433e-09	1.184222492382046394e+07	2.890366098202236369e+07
3.593813663804627762e-09	1.184218960554111004e+07	2.890361582726611942e+07
3.711671819475765297e-09	1.184215312900825217e+07	2.890356919167175516e+07
3.833395101766601886e-09	1.184211545623727888e+07	2.890352102667557448e+07
3.959110266468459240e-09	1.184207654799788073e+07	2.890347128212125599e+07
4.088948226294862618e-09	1.184203636377320066e+07	2.890341990620761365e+07
4.223044187206674123e-09	1.184199486171764508e+07	2.890336684543465823e+07
4.361537789208003199e-09	1.184195199861330539e+07	2.890331204454787821e+07
4.504573251759458750e-09	1.184190772982494719e+07	2.890325544648070633e+07
4.652299523960189308e-09	1.184186200925354287e+07	2.890319699229509383e+07
4.804870439655131104e-09	1.184181478928825818e+07	2.890313662112013623e+07
4.962444877628916452e-09	1.184176602075686865e+07	2.890307427008868009e+07
5.125186927053329472e-09	1.184171565287456661e+07	2.890300987427185848e+07
5.293266058360561204e-09	1.184166363319106773e+07	2.890294336661149189e+07
5.466857299720180771e-09	1.184160990753599443e+07	2.890287467785023153e+07
5.646141419303669251e-09	1.184155441996246576e+07	2.890280373645946383e+07
5.831305113526221869e-09	1.184149711268883571e+07	2.890273046856480092e+07
6.022541201461928965e-09	1.184143792603853345e+07	2.890265479786916822e+07
6.220048825634711276e-09	1.184137679837790132e+07	2.890257664557336643e+07
6.424033659394191079e-09	1.184131366605202481e+07	2.890249593029396981e+07
6.634708121092347870e-09	1.184124846331844293e+07	2.890241256797862798e+07
6.852291595284060743e-09	1.184118112227869593e+07	2.890232647181849927e+07
7.077010661181889919e-09	1.184111157280760258e+07	2.890223755215787888e+07
7.309099328602911004e-09	1.184103974248025008e+07	2.890214571640082821e+07
7.548799281653435948e-09	1.184096555649656802e+07	2.890205086891474575e+07
7.796360130405233414e-09	1.184088893760343827e+07	2.890195291093078628e+07
8.052039670825474778e-09	1.184080980601425096e+07	2.890185174044099450e+07
8.316104153230961616e-09	1.184072807932580635e+07	2.890174725209211931e+07
8.588828559546249041e-09	1.184064367243252695e+07	2.890163933707585558e+07
8.870496889654407999e-09	1.184055649743780866e+07	2.890152788301555812e+07
9.161402457138517586e-09	1.184046646356250718e+07	2.890141277384923398e+07
9.461848194721997291e-09	1.184037347705040500e+07	2.890129388970865682e+07
9.772146969725725887e-09	1.184027744107056409e+07	2.890117110679456219e+07
1.009262190987047331e-08	1.184017888185298257e+07	2.890104435345810279e+07
1.042360673976401127e-08	1.184007868149753287e+07	2.890091358609423786e+07
1.076544612842315905e-08	1.183997519509829022e+07	2.890077853024973348e+07
1.111849604819270880e-08	1.183986831489032507e+07	2.890063904528501257e+07
1.148312414543511117e-08	1.183975792957459390e+07	2.890049498594826832e+07
1.185971012337669343e-08	1.183964392420202307e+07	2.890034620222419500e+07
1.224864613750930795e-08	1.183952618005382456e+07	2.890019253917777911e+07
1.265033720395903769e-08	1.183940472166168131e+07	2.890003385288367793e+07
1.306520162124721228e-08	1.183928012747670338e+07	2.889987005518176034e+07
1.349367140588306343e-08	1.183915144725883193e+07	2.889970088577812165e+07
1.393619274224142065e-08	1.183901854700771160e+07	2.889952616850924119e+07
1.439322644719406651e-08	1.183888128832848370e+07	2.889934572143436596e+07
1.486524844997857277e-08	1.183873952828766592e+07	2.889915935664604232e+07
1.535275028780422776e-08	1.183859311926431395e+07	2.889896688007444888e+07
1.585623961771137302e-08	1.183844192836924084e+07	2.889876809366979450e+07
1.637624074521687477e-08	1.183828715176273510e+07	2.889856295533167943e+07
1.691329517029648562e-08	1.183812729929891229e+07	2.889835108953675255e+07
1.746796215127245689e-08	1.183796220451639034e+07	2.889813227565988526e+07
1.804081928719382751e-08	1.183779169549473375e+07	2.889790628584058210e+07
1.863246311931559514e-08	1.183761559467542171e+07	2.889767288474574313e+07
1.924350975230330612e-08	1.183743371867695078e+07	2.889743182932456210e+07
1.987459549580983990e-08	1.183724587810386904e+07	2.889718286855547130e+07
2.052637752709252173e-08	1.183705355181621946e+07	2.889692597465102375e+07
2.119953457536071000e-08	1.183685515342621692e+07	2.889666068849037588e+07
2.189476762856620985e-08	1.183665024861420505e+07	2.889638670234121382e+07
2.261280066337277307e-08	1.183643862400381081e+07	2.889610373088973761e+07
2.335438139906479724e-08	1.183622005922105350e+07	2.889581147946537286e+07
2.412028207618007283e-08	1.183599432666483708e+07	2.889550964373388886e+07
2.491130026067788373e-08	1.183576119126995467e+07	2.889519790938050672e+07
2.572825967447932303e-08	1.183552236620508321e+07	2.889487625416168571e+07
2.657201105324503850e-08	1.183527639699118212e+07	2.889454415671608597e+07
2.744343303228365032e-08	1.183502236128284968e+07	2.889420116822379455e+07
2.834343306151309448e-08	1.183475999454156496e+07	2.889384693151584640e+07
2.927294835042816131e-08	1.183448902355333604e+07	2.889348107771001756e+07
3.023294684405776334e-08	1.183420916614418849e+07	2.889310322582671046e+07
3.122442823092858392e-08	1.183392013088633306e+07	2.889271298239218444e+07
3.224842498408442807e-08	1.183362381227867678e+07	2.889231031688874960e+07
3.330600343624588813e-08	1.183331921968188137e+07	2.889189469323496893e+07
3.439826489022924478e-08	1.183300463805252872e+07	2.889146543931488693e+07
3.552634676578139226e-08	1.183267973980297521e+07	2.889102210812756792e+07
3.669142378402493899e-08	1.183234418660242669e+07	2.889056423801280931e+07
3.789470919074667737e-08	1.183199762902462296e+07	2.889009135217038170e+07
3.913745601980383687e-08	1.183163970618396066e+07	2.888960295816352591e+07
4.042095839796305955e-08	1.183127238564966246e+07	2.888909897799279913e+07
4.174655289253134782e-08	1.183089568558435328e+07	2.888857896056018770e+07
4.311561990318228626e-08	1.183050663174138963e+07	2.888804188929528370e+07
4.452958509942655287e-08	1.183010481898194179e+07	2.888748720492222533e+07
4.598992090522439315e-08	1.182968982888076641e+07	2.888691432982385159e+07
4.749814803228499868e-08	1.182926122929047607e+07	2.888632266744020581e+07
4.905583706365045989e-08	1.182881857389151864e+07	2.888571160164729878e+07
5.066461008921269181e-08	1.182836367589846067e+07	2.888508096598232538e+07
5.232614239486661694e-08	1.182789843286097236e+07	2.888443059366201609e+07
5.404216420705915059e-08	1.182741793230279349e+07	2.888375889255581424e+07
5.581446249454960394e-08	1.182692167385762185e+07	2.888306516319189966e+07
5.764488282925879445e-08	1.182640914074977674e+07	2.888234868315947801e+07
5.953533130814369715e-08	1.182587979925606214e+07	2.888160870635646582e+07
6.148777653810024108e-08	1.182533309814996645e+07	2.888084446221257374e+07
6.350425168595962148e-08	1.182477031969109550e+07	2.888005557955506817e+07
6.558685659571428548e-08	1.182419661197548918e+07	2.887924255204888061e+07
6.773775997517751128e-08	1.182360408966914937e+07	2.887840286152359098e+07
6.995920165435375620e-08	1.182299213575261645e+07	2.887753563357262313e+07
7.225349491787214948e-08	1.182236011297144368e+07	2.887663996511349455e+07
7.462302891391107044e-08	1.182170736317259818e+07	2.887571492344735935e+07
7.707027114212294845e-08	1.182103320661908761e+07	2.887475954528776556e+07
7.959777002314985573e-08	1.182033775129103474e+07	2.887377304095128551e+07
8.220815755240541849e-08	1.181963147104417346e+07	2.887275721987273917e+07
8.490415204088747078e-08	1.181890202852595598e+07	2.887170808521424234e+07
8.768856094587425811e-08	1.181814866413590312e+07	2.887062454446587712e+07
9.056428379445295063e-08	1.181737059336264245e+07	2.886950546928914264e+07
9.353431520292386860e-08	1.181656700596695766e+07	2.886834969434198737e+07
9.660174799522647250e-08	1.181573706513806060e+07	2.886715601606528834e+07
9.976977642363202159e-08	1.181487990662216768e+07	2.886592319142950699e+07
1.030416994950587396e-07	1.181401078324594907e+07	2.886465446911960468e+07
1.064209244064724761e-07	1.181311441931083612e+07	2.886334449371160567e+07
1.099109700929497372e-07	1.181218865936076827e+07	2.886199155801128596e+07
1.135154708920999096e-07	1.181123253936131671e+07	2.886059425314736739e+07
1.172381803286598596e-07	1.181024506366280094e+07	2.885915112404502928e+07
1.210829750232039531e-07	1.180922520396347530e+07	2.885766066791065410e+07
1.250538587290391570e-07	1.180817189823871478e+07	2.885612133266691118e+07
1.291549665014884007e-07	1.180710270418752357e+07	2.885453731525067985e+07
1.333905690039058854e-07	1.180600339906012081e+07	2.885290289030764252e+07
1.377650769549053468e-07	1.180486804251576774e+07	2.885121486483675614e+07
1.422830457214352017e-07	1.180369545225791074e+07	2.884947148102307320e+07
1.469491800624817218e-07	1.180248440721689537e+07	2.884767092340459675e+07
1.517683390283405561e-07	1.180123364627841674e+07	2.884581131698171422e+07
1.567455410205594968e-07	1.179994186697026715e+07	2.884389072526472434e+07
1.618859690178197646e-07	1.179862858619719371e+07	2.884191434609522671e+07
1.671949759731990056e-07	1.179728329818784818e+07	2.883987696852338687e+07
1.726780903884356132e-07	1.179589389181888103e+07	2.883777277570026740e+07
1.783410220710008120e-07	1.179445892024051771e+07	2.883559957643760368e+07
1.841896680799711039e-07	1.179297688915393129e+07	2.883335510768771544e+07
1.902301188668944219e-07	1.179144625525516272e+07	2.883103703218686953e+07
1.964686646180446931e-07	1.178986542462801933e+07	2.882864293602140993e+07
2.029118018046678038e-07	1.178825500919036381e+07	2.882617885140183941e+07
2.095662399480432992e-07	1.178661254151205160e+07	2.882364190961721167e+07
2.164389086064020114e-07	1.178491620954654552e+07	2.882102176950686797e+07
2.235369645909794139e-07	1.178316424682898447e+07	2.881831570260401815e+07
2.308677994187169850e-07	1.178135482896376774e+07	2.881552089096252993e+07
2.384390470093720426e-07	1.177948607172473334e+07	2.881263442422249541e+07
2.462585916350547006e-07	1.177755602909302153e+07	2.880965329657952860e+07
2.543345761304648365e-07	1.177558475726864114e+07	2.880658377295160666e+07
2.626754103723835758e-07	1.177358455226447992e+07	2.880342874944033846e+07
2.712897800372467241e-07	1.177151875107342377e+07	2.880017025777881593e+07
2.801866556459195443e-07	1.176938520248610713e+07	2.879680490475679189e+07
2.893753019050950594e-07	1.176718168474483490e+07	2.879332918588459864e+07
2.988652873550382326e-07	1.176490590322995931e+07	2.878973948174376786e+07
3.086664943337274455e-07	1.176255548807039484e+07	2.878603205421796814e+07
3.187891292677645596e-07	1.176014708299832046e+07	2.878221204502758011e+07
3.292437333007768907e-07	1.175771790172352456e+07	2.877829420681252703e+07
3.400411932703706463e-07	1.175520905610003881e+07	2.877424788414351642e+07
3.511927530450727317e-07	1.175261793355690315e+07	2.877006886340732127e+07
3.627100252330649086e-07	1.174994183584459871e+07	2.876575279280639067e+07
3.746050032748993774e-07	1.174717797622522898e+07	2.876129517782716453e+07
3.868900739327976195e-07	1.174432347657058015e+07	2.875669137655969709e+07
3.995780301895269929e-07	1.174138696850733645e+07	2.875194266226302832e+07
4.126820845702951630e-07	1.173844555639652163e+07	2.874708600393607095e+07
4.262158829015325345e-07	1.173540768146407045e+07	2.874207007280126587e+07
4.401935185208874400e-07	1.173227018023760431e+07	2.873688964554956555e+07
4.546295469532399562e-07	1.172902978549952246e+07	2.873153932757491991e+07
4.695390010680058238e-07	1.172568312288469262e+07	2.872601354735661671e+07
4.849374067335232931e-07	1.172222670736658759e+07	2.872030655065741017e+07
5.008407989848212921e-07	1.171865693962816522e+07	2.871441239453139156e+07
5.172657387216018967e-07	1.171510378132685646e+07	2.870840252886917442e+07
