# Frequency (Hz)	Imaginary Part (Ohm/m)
1000.0	64537772.05364463
1018.6101701559753	64428051.895474344
1037.566678745186	64316289.826490976
1056.875971184804	64202447.84638684
1076.5446128423157	64086487.247662075
1096.5792912678098	63968368.60246367
1116.9868184678226	63848051.749179505
1137.7741332214914	63725495.7787831
1158.9483034398106	63600659.020923994
1180.5165285688054	63473499.0297594
1202.4861420374123	63343972.569522195
1224.8646137509306	63212035.599820286
1247.6595526308697	63077643.260662355
1270.8787092020582	62951699.98520525
1294.529978227916	62833925.32715507
1318.6214013947485	62713958.862678535
1343.1611700460153	62591759.80188507
1368.1576279674719	62467286.59577733
1393.619274224142	62340496.92212407
1419.5547660501015	62211347.67107011
1445.9729217920194	62079794.930478506
1472.882723907502	61945793.97100003
1500.2933220192183	61809299.23086456
1528.2140360258693	61670264.300389804
1556.654359271062	61528641.90620127
1585.6239617711371	61384985.96840358
1615.132693503091	61262355.146939866
1645.1905877536624	61137442.14502235
1675.807864530767	61010204.49088442
1706.9949340384078	60880598.92235276
1738.7624002162504	60748581.372137584
1771.1210643450886	60614106.9528493
1804.0819287193826	60477129.94173644
1837.6562003881704	60337603.76513931
1871.8552949655793	60195480.9826545
1906.690840512252	60050713.27100461
1942.1746814890264	59903251.407607816
1978.3188827841643	59753045.253841706
2015.1357338155585	59614533.07407509
2052.6377527092523	59486026.18412144
2090.8376905557498	59355127.75907954
2129.748535745521	59221793.29207445
2169.3835183851843	59085977.44795074
2209.756114795903	58947634.04785803
2250.880052095462	58806716.05354962
2292.7693128656488	58663175.551389106
2335.438139906479	58516963.73605909
2378.9010410788933	58368030.89396699
2423.1727942376006	58216326.38634173
2468.2684522556924	58061798.63201614
2514.2033481427966	57905865.59667587
2560.9931002584594	57775229.372333646
2608.6536176225477	57642161.98562789
2657.2011053245064	57506618.19221332
2706.652070033241	57368551.90573972
2757.0233256095826	57227916.18218204
2808.3319988231724	57084663.20387893
2860.5955351757416	56938744.26327427
2913.831704832789	56790109.74635596
2968.0586086656026	56638709.11578675
3023.2946844057765	56484490.893720955
3079.5587129142264	56327402.64430135
3136.8698245668766	56167390.95583054
3195.2475057592133	56022319.54948312
3254.711605531848	55888613.71627316
3315.282342319423	55752419.59475632
3376.9803108250912	55613690.877463795
3439.8264890229243	55472380.39513695
3503.8422452906757	55328440.10068918
3569.0493456752292	55181821.05286943
3635.4699612933177	55032473.39962166
3703.126675869927	54880346.36113452
3772.0424934169973	54725388.21257585
3842.240846055061	54567546.26650542
3913.745601980384	54406766.85496089
3986.581073580439	54245517.56948894
4060.7720257003657	54112663.79194198
4136.343684063274	53977337.582989015
4213.321743847289	53839492.93026086
4291.732378422157	53699082.965090334
4371.602248248501	53556059.94657642
4452.958509942655	53410375.24535171
4535.828825510186	53261979.32704809
4620.241371751313	53110821.73545439
4706.224849841281	52956851.075360775
4793.808495089106	52800014.99508378
4883.02208687788	52640260.168666236
4973.895958790063	52477532.27774583
5066.461008921268	52332493.305282205
5160.7487103859075	52199436.02649672
5256.791122018419	52063902.529112555
5354.620899273607	51925846.73028022
5454.271305329836	51785221.6895406
5555.7762223988775	51641979.59286465
5659.170163246242	51496071.73639604
5764.488282925873	51347448.50989147
5871.766390733255	51196059.37985248
5981.040962380945	51041852.872343734
6092.349152400711	50884776.55549109
6205.7288067765	50724777.02165434
6321.218475812449	50565406.970432185
6438.8574272404185	50435835.96916422
6558.685659571435	50303853.62951539
6680.743915695614	50169415.0760681
6805.073696735206	50032474.59826565
6931.717276155407	49892985.634870045
7060.717714137772	49750900.75813075
7192.118872221193	49606171.65765878
7325.96542821523	49458749.12400048
7462.302891391108	49308583.03190599
7601.17761795533	49155622.323285945
7742.636826811269	48999814.98985132
7886.728615614156	48841108.05542991
8033.501977124735	48701919.44173491
8183.00681586739	48574489.04542188
8335.293965098195	48444687.14775042
8490.415204088747	48312469.614676744
8648.423275731726	48177791.490814954
8809.37190447399	48040606.9841518
8973.31581458352	47900869.450476885
9140.310748756232	47758531.37752312
9310.413487069076	47613544.36881199
9483.681866285926	47465859.12719834
9660.174799522645	47315425.43810874
9839.952296278227	47162192.15246799
10023.075482838643	47010664.50528967
10209.606623060476	46888514.073193565
10399.609139541202	46764090.40077154
10593.1476351837	46637351.18263432
10790.287915161836	46508253.3260821
10991.097009294961	46376752.9364527
11195.643194838794	46242805.30219669
11403.99601970033	46106364.8796752
11616.22632608502	45967385.27767444
11832.40627458378	45825819.24163223
12052.609368708414	45681618.63757097
12276.910479883603	45534734.43573153
12505.385872903913	45385116.69390264
12738.113231864783	45255723.781027205
12975.171686575868	45137127.657586835
13216.641839466038	45016324.44010941
13462.60579298911	44893273.05419933
13713.147177539455	44767931.661059536
13968.351179887397	44640257.643265836
14228.30457214352	44510207.59027649
14493.09574126215	44377737.28367223
14762.81471909391	44242801.68212141
15037.553212997384	44105354.90606568
15317.404637020798	43965350.22212013
15602.46414366368	43822740.027183734
15892.828656229764	43682723.85798616
16188.596901781993	43570116.50091888
16489.86944471065	43455413.501775794
16796.74872092653	43338575.86030122
17109.339072690134	43219563.850438215
17427.746784089173	43098337.00682105
17752.08011717636	42974854.111016676
18082.44934877952	42849073.17751004
18418.96680799711	42720951.43942847
18761.746914391195	42590445.33400052
19110.90621689136	42457510.487744175
19466.56343342263	42322101.70137931
19828.83949127071	42184172.93445961
20197.857568198782	42066119.58070214
20573.743134329114	41957407.93244709
20956.623994804308	41846673.14192009
21346.630333242454	41733877.558099166
21743.8947560008	41618982.82927053
22148.55233726359	41501949.88998836
22560.74066496859	41382738.947792284
22980.599887588487	41261309.46967748
23408.272761782944	41137620.16831302
23843.904700937208	41011628.98800368
24287.643824604504	40883293.090390645
24739.64100886812	40752568.83988591
25200.049937640895	40625049.31095505
25669.027154919517	40521979.91305606
26146.732118010917	40416992.37612433
26633.327251749808	40310051.00326602
27128.978003724646	40201119.43326212
27633.852900531667	40090160.62820508
28148.123605075813	39977136.86090562
28671.964974937695	39862009.70206505
29205.55512182745	39744740.00720889
29749.075472144435	39625287.90337731
30302.71082866393	39503612.77556795
30866.649433372742	39379673.25292628
31441.08303147265	39253427.19467922
32026.206936576502	39145943.85161905
32622.220097116733	39046145.501316205
33229.325163989684	38944489.88673296
33847.72855945983	38840942.44386498
34477.640547344636	38735467.96546604
35119.275304507275	38628030.58907696
35772.850993678774	38518593.78483216
36438.58983763541	38407120.34303909
37116.71819475767	38293572.36152632
37807.466635993485	38177911.232756756
38511.070023255685	38060097.63070036
39227.76758927723	37940091.49746299
39957.803018952654	37823626.15650171
40701.42453219439	37728304.01433307
41458.88496832911	37631207.91087907
42230.441872066716	37532304.832418285
43016.35758106799	37431561.1508384
43816.89931514194	37328942.61220217
44632.33926710397	37224414.32510077
45462.95469532399	37117940.74879031
46309.02801799736	37009485.68110759
47170.84690917023	36899012.24616099
48048.704396551344	36786482.881792344
48942.89896114532	36671859.32680526
49853.73463873894	36555102.60795596
50781.5211232767	36455651.38960441
51726.57387216024	36362281.80920536
52689.21421350677	36267174.605027705
53669.76945540476	36170297.43959725
54668.57299720181	36071617.3736339
55685.96444286408	35971100.85485196
56722.28971644549	35868713.706552
57777.90117970507	35764421.1160004
58853.1577519145	35658187.62259263
59948.42503189408	35549977.10579627
61064.07542232036	35439752.772869684
62200.48825634718	35327477.14635197
63358.04992658254	35218887.92494826
64537.15401646702	35128356.93547011
65738.20143409586	35036141.148873396
66961.60054853215	34942209.21079705
68207.76732865692	34846529.18337001
69477.1254846024	34749068.53435204
70770.10661181889	34649794.12607232
72087.15033782135	34548672.20416238
73428.70447166759	34445668.386079215
74795.22515621828	34340747.649414785
76187.17702322999	34233874.31998815
77605.0333513357	34125012.05971574
79049.2762269642	34014123.85425612
80520.39670825469	33919186.590523675
82018.8949920221	33828953.846904784
83545.28058382872	33737041.856573515
85100.07247122246	33643419.368462816
86683.79930019773	33548054.54991796
88296.99955494082	33450914.97587308
89940.22174092053	33351967.617826335
91614.0245713852	33251178.832609866
93318.9771573324	33148514.350950707
95055.65920101192	33043939.265818898
96824.66119303115	32937418.0205587
98626.5846131283	32828914.396798983
100462.04213468132	32724191.229301818
102331.65783302448	32635079.606256343
104236.06739764012	32544309.600743107
106175.9183482999	32451850.349982217
108151.87025522892	32357670.416832168
110164.59496336569	32261737.779100925
112214.77682079801	32164019.818657994
114303.11291144785	32064483.310343925
116430.31329208757	31963094.41067339
118597.10123376705	31859818.64632806
120804.21346773289	31754620.902435277
123052.40043592616	31647465.410628628
125342.42654613995	31538315.73688631
127675.07043192645	31444269.191728983
130051.12521734099	31353858.765163094
132471.39878661174	31261765.785174944
134936.71405883064	31167958.939159047
137447.90926775365	31072406.331777
140005.8382468096	30975075.474112723
142611.37071941295	30875933.27262588
145265.39259467812	30774946.017899744
147968.80626863963	30672079.373179566
150722.53093107554	30567298.36269777
153527.5028780421	30460567.35978179
156384.67583022476	30351850.07474062
159295.0212572123	30247117.912299197
162259.5287078087	30156423.72464083
165279.2061464897	30064041.70271798
168355.08029612005	29969940.435647804
171488.19698705408	29874087.927985534
174679.62151272455	29776451.588845816
177930.43899185772	29676998.220821295
181241.75473742394	29575694.008695237
184614.69463245454	29472504.507944025
188050.40551285836	29367394.633025505
191550.0555573528	29260328.645449683
195114.83468466165	29151270.14162716
198745.9549580986	29040182.040491525
202444.65099768018	28944156.446227647
206212.18039991445	28851008.917925123
210049.8241653915	28756127.89827128
213958.88713434213	28659481.126697116
217940.6984302958	28561035.742258918
221996.61191199525	28460758.272465277
226128.00663372793	28358614.62189594
230336.2873142131	28254570.06060917
234622.88481422624	28148589.21233305
238989.25662310526	28040636.042437218
243436.8873543108	27930673.845680777
247967.289250216	27818665.23373195
252582.00269627848	27711103.235293176
257282.59674479323	27616919.9867843
262070.66964838552	27520983.971994836
266947.8494034318	27423262.571646065
271915.7943036019	27323722.559408896
276976.1935036891	27222330.090606686
282130.76759394706	27119050.690707527
287381.2691851069	27013849.24360263
292729.4835042813	26906689.979666475
298177.22900196735	26797536.463594653
303726.3579703311	26686351.582015637
309378.75717301364	26573097.530871645
315136.34848664823	26457735.80256501
321001.08955431683	26358328.880475033
326974.97445117676	26261287.94949113
333060.03436245886	26162441.070269536
339258.33827409917	26061754.633806244
345571.9936762143	25959194.40562795
352003.1472796675	25854725.51415206
358553.9857459817	25748312.438829765
365226.7364308175	25639918.998068914
372023.6681413066	25529508.336931713
378947.09190746717	25417042.914603703
385999.36176797637	25302484.491629522
393182.87557057705	25185794.11691097
400500.07578736113	25074349.673185393
407953.45034524484	24976379.700214252
415545.53347188793	24876586.48937592
423278.90655735444	24774936.1099035
431156.19903182285	24671393.99957265
439180.0892596086	24565924.952950254
447353.3054498463	24458493.109424017
455678.6265841068	24349061.941009585
464158.8833612772	24237594.239930615
472796.9591600391	24124052.105967637
481595.79101923504	24008396.93357176
490558.37063650455	23890589.39873816
499687.7453854889	23770589.445635654
508987.0193519675	23668251.9308667
518459.3543892913	23567905.968274757
528107.971193433	23465692.550244525
537936.1503980698	23361576.92311252
547947.2336900292	23255523.68644369
558144.6249454955	23147496.78099487
568531.7913873753	23037459.476454217
579112.2647641759	22925374.358952563
589889.6425508494	22811203.31834225
600867.5891719692	22694907.535239287
612049.837247669	22576447.46782437
623440.1888627863	22455782.838398155
635042.5168595961	22341471.397681758
646860.7661546321	22241149.735712416
658898.9550799957	22138961.07054349
671161.1767496272	22034870.656927776
683651.6004510238	21928843.103003044
696374.4730628222	21820842.358258564
709334.1204987989	21710831.70127742
722534.9491787221	21598773.727250867
735981.4475265755	21484630.335260373
749678.1874966878	21368362.715322725
763629.8261282243	21249931.33519443
777841.1071286482	21129295.926930137
792316.8624866261	21006415.473191198
807062.0141149492	20903344.410128288
822081.575524054	20801910.353242375
837380.6535266489	20698588.59129822
852964.4499741016	20593343.99378347
868838.2635251193	20486140.77640095
885007.4914473438	20376942.488901697
901477.6314524917	20265712.002691336
918254.2835656281	20152411.49820607
935343.1520292377	20037002.452053573
952750.0472427299	19919445.623914625
970480.8877380306	19799701.043201037
988541.7021919573	19677727.995465107
1006938.6314760271	19563368.875032634
1025677.9307444209	19463507.258684963
1044765.9715608053	19361787.20066501
1064209.2440647245	19258174.115057036
1084014.359178331	19152632.772295512
1104188.0508541602	19045127.287186712
1124737.1783647507	18935621.10670733
1145668.7286348727	18824076.997576088
1166989.8186171474	18710457.03359403
1188707.6977119034	18594722.582749143
1210829.7502320393	18476834.294081133
1233363.4979137746	18356752.08430161
1256316.6024741214	18234435.124165364
1279696.8682159416	18133963.99827735
1303512.2446815087	18034709.11307135
1327770.829355429	17933607.07756284
1352480.8704178738	17830623.515970413
1377650.769549055	17725723.41277346
1403289.084785873	17618871.100806653
1429404.533431761	17510030.249132577
1456005.9950206485	17399163.850688934
1483102.514336103	17286234.209705666
1510703.3044866556	17171202.928888038
1538817.7500383465	17054030.89636114
1567455.410205595	16934678.272371408
1596626.022101425	16824114.389528614
1626339.5040481905	16728160.769958273
1656605.9589499151	16630421.437200634
1687435.6777273756	16530863.158829452
1718839.1428171454	16429452.083957348
1750827.0317357269	16326153.731726166
1783410.220710006	16220932.979583144
1816599.7883753285	16113754.051338786
1850407.019542302	16004580.505002674
1884843.4090337954	15893375.220392717
1919920.6655932867	15780100.38651391
1955650.715865947	15664717.488702254
1992045.7084538713	15547187.295529205
2029118.0180466783	15452878.580377042
2066880.2496290822	15359273.752025045
2105345.242766708	15263926.921889992
2144526.0759716653	15166805.67102231
2184436.0711494284	15067876.977150198
2225088.7981283693	14967107.203451829
2266498.079273693	14864462.087118356
2308677.994187172	14759906.727704225
2351642.884494346	14653405.575260699
2395407.358720879	14544922.41824837
2439986.29725955	14434420.371224994
2485394.857429798	14321861.862303933
2531648.478631358	14218939.626693996
2578762.8875937983	14130120.38773511
2626754.1037238385	14039648.207626056
2675638.4445520453	13947492.3248508
2725432.531281028	13853621.405416222
2776153.2944368036	13758003.532198261
2827817.979625338	13660606.194089781
2880444.1533962977	13561396.274946341
2934049.709215787	13460340.042326495
2988652.873550383	13357403.136022266
3044272.2120643063	13252550.556376379
3100926.6359319235	13145746.652382014
3158635.408267819	13036955.109560965
3217418.1506763715	12951734.01056596
3277294.849923382	12866649.053612528
3338285.8647317644	12779980.651132474
3400411.9327037027	12691699.334935134
3463694.1773717343	12601775.088421747
3528154.1153808828	12510177.33637961
3593813.6638046256	12416874.934586065
3660695.147596906	12321836.15921917
3728821.30718283	12225028.6960713
3798215.306190736	12126419.62956186
3868900.7393279755	12025975.431545772
3940901.6404034477	11923661.949913418
4014242.490499326	11831347.818305176
4088948.226294856	11751999.107629035
4165044.248545185	11671173.703945534
4242556.430717777	11588844.125746563
4321511.127789762	11504982.380088447
4401935.1852088785	11419559.953074044
4483855.948021181	11332547.800157782
4567301.270168747	11243916.336270094
4652299.523960189	11153635.425758295
4738879.609717651	11061674.37214003
4827070.965603188	10968001.907666199
4916903.577628021	10872586.182689603
5008407.989848212	10775394.754835611
5101615.314749833	10701018.05747145
5196557.243827657	10626225.427593539
5293266.058360566	10550040.894147173
5391774.640387494	10472438.553570135
5492116.483887789	10393392.020230439
5594325.706169377	10312874.417455059
5698437.0594691355	10230858.368391478
5804485.942768984	10147315.98669929
5912508.413831869	10062218.867068602
6022541.201461928	9975538.07556178
6134621.717992506	9887244.13977577
6248788.072006888	9797307.038821045
6365079.081295578	9717219.656771485
6483534.286054714	9648496.269247528
6604193.962330305	9578493.927788043
6727099.135712336	9507188.830842694
6852291.595284057	9434556.733910196
6979813.907830667	9360572.941294994
7109709.432312423	9285212.297710454
7242022.334607315	9208449.179725725
7376797.60252773	9130257.487053605
7514081.061116962	9050610.633676076
7653919.388230155	8969481.538804788
7796360.130405221	8886842.61767337
7941451.71902934	8802665.77215817
8089243.486805938	8739630.647592202
8239785.684528512	8675712.53386084
8393129.498166373	8610604.893156879
8549327.066268368	8544285.588180976
8708431.497690724	8476732.069654834
8870496.889654402	8407921.368654294
9035578.34613892	8337830.088799577
9203731.99661823	8266434.398300309
9375015.01514529	8193710.021852454
9549485.639791967	8119632.232384417
9727203.192450536	8044175.842649601
9908228.099003786	7967315.196662466
10092621.909870483	7899728.440560417
10280447.320933098	7841687.308094138
10471768.194855202	7782566.020276619
10666649.582795387	7722344.475232972
10865157.746525371	7661002.196989007
11067360.180959744	7598518.328509164
11273325.63710487	7534871.624604911
11483124.14543511	7470040.444711133
11696827.039703846	7404002.74552812
11914506.981197748	7336736.0735265985
12136237.983442418	7268217.5573133
12362095.437367693	7198423.899854442
12592156.13694151	7127578.576711131
12826498.3052806	7075125.1292394055
13065201.621247198	7021695.514184967
13308347.24654076	6967271.5649029855
13556017.853293689	6911834.776664317
13808297.652180923	6855366.3003636245
14065272.421052363	6797846.936110526
14327029.534098294	6739257.126701416
14593657.991557576	6679576.950969789
14865248.449978571	6618786.117012863
15141893.25304352	6556863.955292079
15423686.462966273	6493789.411605242
15710723.892474487	6429541.039927884
16003103.137387017	6373711.187975646
16300923.609797413	6325621.446916856
16604286.571875297	6276636.747594202
16913295.17029647	6226740.434682114
17228054.471313924	6175915.542896576
17548671.49648152	6124144.791226748
17875255.259042352	6071410.577059246
18207916.800994623	6017694.970193044
18546769.230846975	5962979.706743031
18891927.762076646	5907246.182930082
19243509.75230332	5850475.44875558
19601634.743191857	5792648.201558214
19966424.501097932	5734371.160228023
20338003.0584698	5691235.741002508
20716496.75602067	5647297.564285459
21102034.285685964	5602541.690623356
21494746.734379806	5556952.902536923
21894767.628566206	5510515.699347003
