# Frequency (Hz)	Imaginary Part (Ohm/m)
1000.0	28865830.189854052
1018.6101701559753	28865108.707181457
1037.566678745186	28864373.797593564
1056.875971184804	28863625.21121319
1076.5446128423157	28862862.693512898
1096.5792912678098	28862085.985228457
1116.9868184678226	28861294.82227068
1137.7741332214914	28860488.93563564
1158.9483034398106	28859668.051313195
1180.5165285688054	28858831.89019383
1202.4861420374123	28857980.16797376
1224.8646137509306	28857112.595058244
1247.6595526308697	28856228.87646315
1270.8787092020582	28855330.833858855
1294.529978227916	28854418.115849413
1318.6214013947485	28853488.41200251
1343.1611700460153	28852541.406208828
1368.1576279674719	28851576.77647618
1393.619274224142	28850594.194820073
1419.5547660501015	28849593.327152155
1445.9729217920194	28848573.83316663
1472.882723907502	28847535.366224565
1500.2933220192183	28846477.573236004
1528.2140360258693	28845400.09453994
1556.654359271062	28844302.563781995
1585.6239617711371	28843184.763687626
1615.132693503091	28842052.297530316
1645.1905877536624	28840898.75598512
1675.807864530767	28839723.74683548
1706.9949340384078	28838526.870565638
1738.7624002162504	28837307.720224757
1771.1210643450886	28836065.881288584
1804.0819287193826	28834800.931518503
1837.6562003881704	28833512.440817963
1871.8552949655793	28832199.971086238
1906.690840512252	28830863.076069485
1942.1746814890264	28829501.30120899
1978.3188827841643	28828114.183486626
2015.1357338155585	28826706.241905626
2052.6377527092523	28825276.43232971
2090.8376905557498	28823820.01375429
2129.748535745521	28822336.490981366
2169.3835183851843	28820825.35959721
2209.756114795903	28819286.105800863
2250.880052095462	28817718.206229456
2292.7693128656488	28816121.127780236
2335.438139906479	28814494.327429324
2378.9010410788933	28812837.25204707
2423.1727942376006	28811149.338209994
2468.2684522556924	28809430.0120092
2514.2033481427966	28807679.37899682
2560.9931002584594	28805909.400707804
2608.6536176225477	28804106.48282166
2657.2011053245064	28802270.012326874
2706.652070033241	28800399.364803694
2757.0233256095826	28798493.904211808
2808.3319988231724	28796552.98267408
2860.5955351757416	28794575.940256275
2913.831704832789	28792562.104742672
2968.0586086656026	28790510.791407492
3023.2946844057765	28788421.3027821
3079.5587129142264	28786292.928417854
3136.8698245668766	28784124.944644533
3195.2475057592133	28781928.202731173
3254.711605531848	28779699.675748177
3315.282342319423	28777429.67549883
3376.9803108250912	28775117.430158585
3439.8264890229243	28772762.153539117
3503.8422452906757	28770363.044821
3569.0493456752292	28767919.28828141
3635.4699612933177	28765430.053016808
3703.126675869927	28762894.492660366
3772.0424934169973	28760311.745094255
3842.240846055061	28757680.932156462
3913.745601980384	28755001.159342255
3986.581073580439	28752273.788688947
4060.7720257003657	28749523.957241114
4136.343684063274	28746722.95096213
4213.321743847289	28743869.817479692
4291.732378422157	28740963.586697668
4371.602248248501	28738003.270466276
4452.958509942655	28734987.862246104
4535.828825510186	28731916.336765863
4620.241371751313	28728787.649673793
4706.224849841281	28725600.73718258
4793.808495089106	28722354.515707634
4883.02208687788	28719047.881498672
4973.895958790063	28715679.71026444
5066.461008921268	28712275.20680418
5160.7487103859075	28708826.017346002
5256.791122018419	28705312.637885112
5354.620899273607	28701733.87383463
5454.271305329836	28698088.50837622
5555.7762223988775	28694375.302046347
5659.170163246242	28690592.992314853
5764.488282925873	28686740.293155674
5871.766390733255	28682815.894609578
5981.040962380945	28678818.462338783
6092.349152400711	28674746.637173243
6205.7288067765	28670599.034648523
6321.218475812449	28666380.786280446
6438.8574272404185	28662143.457264993
6558.685659571435	28657827.270835556
6680.743915695614	28653430.75944224
6805.073696735206	28648952.428223804
6931.717276155407	28644390.75449938
7060.717714137772	28639744.187250745
7192.118872221193	28635011.14659497
7325.96542821523	28630190.023247242
7462.302891391108	28625279.177973665
7601.17761795533	28620276.941033937
7742.636826811269	28615181.611613605
7886.728615614156	28609991.457245756
8033.501977124735	28604763.382034425
8183.00681586739	28599475.472125947
8335.293965098195	28594089.15331431
8490.415204088747	28588602.59419307
8648.423275731726	28583013.92927302
8809.37190447399	28577321.258347858
8973.31581458352	28571522.645848136
9140.310748756232	28565616.120183125
9310.413487069076	28559599.673070464
9483.681866285926	28553471.258853294
9660.174799522645	28547228.79380476
9839.952296278227	28540870.15541948
10023.075482838643	28534410.451658636
10209.606623060476	28527952.542479333
10399.609139541202	28521374.45051136
10593.1476351837	28514673.939132553
10790.287915161836	28507848.730096858
10991.097009294961	28500896.502759658
11195.643194838794	28493814.89328875
11403.99601970033	28486601.493860614
11616.22632608502	28479253.85184171
11832.40627458378	28471769.468954593
12052.609368708414	28464145.80042843
12276.910479883603	28456380.25413379
12505.385872903913	28448470.189701248
12738.113231864783	28440540.30689781
12975.171686575868	28432535.955280736
13216.641839466038	28424382.64131808
13462.60579298911	28416077.59279524
13713.147177539455	28407617.985906243
13968.351179887397	28399000.944293585
14228.30457214352	28390223.538070273
14493.09574126215	28381282.78282362
14762.81471909391	28372175.638600502
15037.553212997384	28362899.008873757
15317.404637020798	28353449.739489324
15602.46414366368	28343824.617593795
15892.828656229764	28334063.01540792
16188.596901781993	28324363.642889693
16489.86944471065	28314483.763398502
16796.74872092653	28304420.017668854
17109.339072690134	28294168.983918775
17427.746784089173	28283727.17668633
17752.08011717636	28273091.045644555
18082.44934877952	28262256.974394288
18418.96680799711	28251221.279234577
18761.746914391195	28239980.207910147
19110.90621689136	28228529.938335642
19466.56343342263	28216866.577296015
19828.83949127071	28204986.15912286
20197.857568198782	28193152.962664887
20573.743134329114	28181237.50420638
20956.623994804308	28169100.297038473
21346.630333242454	28156737.21437995
21743.8947560008	28144144.05264951
22148.55233726359	28131316.530036457
22560.74066496859	28118250.285044897
22980.599887588487	28104940.875010744
23408.272761782944	28091383.774591178
23843.904700937208	28077574.374225985
24287.643824604504	28063507.97857024
24739.64100886812	28049179.804897863
25200.049937640895	28034684.157418493
25669.027154919517	28020390.62192264
26146.732118010917	28005831.081299074
26633.327251749808	27991000.58514712
27128.978003724646	27975894.090938274
27633.852900531667	27960506.462301742
28148.123605075813	27944832.467277985
28671.964974937695	27928866.776539814
29205.55512182745	27912603.96158035
29749.075472144435	27896038.492867272
30302.71082866393	27879164.737962734
30866.649433372742	27861976.95960825
31441.08303147265	27844469.31377399
32026.206936576502	27827180.83568617
32622.220097116733	27809820.63101943
33229.325163989684	27792137.3499899
33847.72855945983	27774124.98009149
34477.640547344636	27755777.396924365
35119.275304507275	27737088.362112544
35772.850993678774	27718051.521182824
36438.58983763541	27698660.40140418
37116.71819475767	27678908.40958693
37807.466635993485	27658788.829841044
38511.070023255685	27638294.82129262
39227.76758927723	27617419.415757928
39957.803018952654	27596372.949737325
40701.42453219439	27575812.606324904
41458.88496832911	27554869.631423116
42230.441872066716	27533536.90419483
43016.35758106799	27511807.171282932
43816.89931514194	27489673.044344105
44632.33926710397	27467126.99753669
45462.95469532399	27444161.36496185
46309.02801799736	27420768.33805705
47170.84690917023	27396939.96294108
48048.704396551344	27372668.13770967
48942.89896114532	27347944.609680705
49853.73463873894	27322760.972588263
50781.5211232767	27298168.660251692
51726.57387216024	27273550.35778577
52689.21421350677	27248473.904522
53669.76945540476	27222930.774196092
54668.57299720181	27196912.2818685
55685.96444286408	27170409.580971483
56722.28971644549	27143413.660301186
57777.90117970507	27115915.340953697
58853.1577519145	27087905.273204148
59948.42503189408	27059373.933327697
61064.07542232036	27030311.62036137
62200.48825634718	27000708.45280561
63358.04992658254	26971002.62420775
64537.15401646702	26942302.2807358
65738.20143409586	26913067.818988297
66961.60054853215	26883289.298933256
68207.76732865692	26852956.595552996
69477.1254846024	26822059.39540154
70770.10661181889	26790587.193097923
72087.15033782135	26758529.28775425
73428.70447166759	26725874.77933729
74795.22515621828	26692612.564962327
76187.17702322999	26658731.335118085
77605.0333513357	26624219.569821347
79049.2762269642	26589065.534700055
80520.39670825469	26555216.663738087
82018.8949920221	26521441.72323152
83545.28058382872	26487038.22533512
85100.07247122246	26451994.472488914
86683.79930019773	26416298.54943933
88296.99955494082	26379938.31918792
89940.22174092053	26342901.41886462
91614.0245713852	26305175.255524255
93318.9771573324	26266747.001864795
95055.65920101192	26227603.591865934
96824.66119303115	26187731.71634651
98626.5846131283	26147117.818439223
100462.04213468132	26106613.16378189
102331.65783302448	26067973.991028603
104236.06739764012	26028615.7366957
106175.9183482999	25988525.018552613
108151.87025522892	25947688.205323208
110164.59496336569	25906091.41205098
112214.77682079801	25863720.495378014
114303.11291144785	25820561.0487361
116430.31329208757	25776598.397448335
118597.10123376705	25731817.5937396
120804.21346773289	25686203.411654122
123052.40043592616	25639740.34187851
125342.42654613995	25592412.58646841
127675.07043192645	25547619.58875343
130051.12521734099	25503066.686165757
132471.39878661174	25457684.646479994
134936.71405883064	25411458.03931365
137447.90926775365	25364371.14712221
140005.8382468096	25316407.95985497
142611.37071941295	25267552.16951146
145265.39259467812	25217787.16459656
147968.80626863963	25167096.02447238
150722.53093107554	25115461.513605088
153527.5028780421	25062866.07570463
156384.67583022476	25009291.827755418
159295.0212572123	24956275.079338726
162259.5287078087	24906407.958262283
165279.2061464897	24855612.80157742
168355.08029612005	24803872.338383563
171488.19698705408	24751168.976365708
174679.62151272455	24697484.795812912
177930.43899185772	24642801.54352535
181241.75473742394	24587100.62660802
184614.69463245454	24530363.106149033
188050.40551285836	24472569.690780062
191550.0555573528	24413700.730117187
195114.83468466165	24353736.20807947
198745.9549580986	24292655.736083303
202444.65099768018	24236012.574331675
206212.18039991445	24179833.294252235
210049.8241653915	24122608.508211277
213958.88713434213	24064318.759164963
217940.6984302958	24004944.227970537
221996.61191199525	23944464.726647664
226128.00663372793	23882859.691514213
230336.2873142131	23820108.17619447
234622.88481422624	23756188.844497077
238989.25662310526	23691079.96316054
243436.8873543108	23624759.394463677
247967.289250216	23557204.588698506
252582.00269627848	23490980.615993515
257282.59674479323	23429618.928427063
262070.66964838552	23367115.289413936
266947.8494034318	23303448.44704342
271915.7943036019	23238596.753903076
276976.1935036891	23172538.1597185
282130.76759394706	23105250.20385588
287381.2691851069	23036710.007685203
292729.4835042813	22966894.266801283
298177.22900196735	22895779.24309993
303726.3579703311	22823340.756706864
309378.75717301364	22749554.17775617
315136.34848664823	22674394.418015976
321001.08955431683	22606301.30855869
326974.97445117676	22538912.60207435
333060.03436245886	22470269.780295752
339258.33827409917	22400349.503923863
345571.9936762143	22329127.999311335
352003.1472796675	22256581.05037922
358553.9857459817	22182683.990383167
365226.7364308175	22107411.693526566
372023.6681413066	22030738.566417433
378947.09190746717	21952638.5393664
385999.36176797637	21873085.057522777
393182.87557057705	21792051.07184553
400500.07578736113	21713485.593975686
407953.45034524484	21641793.557117376
415545.53347188793	21568767.31925429
423278.90655735444	21494382.050678745
431156.19903182285	21418612.45959789
439180.0892596086	21341432.783534378
447353.3054498463	21262816.780566745
455678.6265841068	21182737.72040689
464158.8833612772	21101168.37531155
472796.9591600391	21018081.010824453
481595.79101923504	20933447.37634645
490558.37063650455	20847238.695529893
499687.7453854889	20759425.65649441
508987.0193519675	20681894.44084819
518459.3543892913	20605253.816538926
528107.971193433	20527186.89717041
537936.1503980698	20447667.139148887
547947.2336900292	20366667.504899822
558144.6249454955	20284160.45367482
568531.7913873753	20200117.932187438
579112.2647641759	20114511.365074854
589889.6425508494	20027311.64518183
600867.5891719692	19938489.123664033
612049.837247669	19848013.59990713
623440.1888627863	19755854.311258137
635042.5168595961	19667608.232998934
646860.7661546321	19588269.313407317
658898.9550799957	19507453.883022103
671161.1767496272	19425134.46372621
683651.6004510238	19341283.06603006
696374.4730628222	19255871.17955498
709334.1204987989	19168869.76333925
722534.9491787221	19080249.23596393
735981.4475265755	18989979.46549486
749678.1874966878	18898029.7592374
763629.8261282243	18804368.853300706
777841.1071286482	18708964.90196757
792316.8624866261	18611785.46686656
807062.0141149492	18528318.00037678
822081.575524054	18445794.363872517
837380.6535266489	18361734.94845103
852964.4499741016	18276111.173005342
868838.2635251193	18188893.9245292
885007.4914473438	18100053.54821839
901477.6314524917	18009559.837387715
918254.2835656281	17917382.023200437
935343.1520292377	17823488.764206525
952750.0472427299	17727848.13568623
970480.8877380306	17630427.618795358
988541.7021919573	17531194.089508463
1006938.6314760271	17437454.616105918
1025677.9307444209	17354318.68008934
1044765.9715608053	17269635.570157405
1064209.2440647245	17183376.493140314
1084014.359178331	17095512.120022435
1104188.0508541602	17006012.575970184
1124737.1783647507	16914847.43017424
1145668.7286348727	16821985.685502727
1166989.8186171474	16727395.767961908
1188707.6977119034	16631045.515960613
1210829.7502320393	16532902.169375006
1233363.4979137746	16432932.358409762
1256316.6024741214	16331102.092251984
1279696.8682159416	16246098.536094058
1303512.2446815087	16161908.186496949
1327770.829355429	16076151.040168347
1352480.8704178738	15988797.93875448
1377650.769549055	15899819.181259638
1403289.084785873	15809184.513947558
1429404.533431761	15716863.12005477
1456005.9950206485	15622823.609312603
1483102.514336103	15527034.007274136
1510703.3044866556	15429461.744442552
1538817.7500383465	15330073.64519718
1567455.410205595	15228835.91651337
1596626.022101425	15134561.039633295
1626339.5040481905	15051924.99180225
1656605.9589499151	14967751.073060041
1687435.6777273756	14882010.663367355
1718839.1428171454	14794674.610061042
1750827.0317357269	14705713.217941942
1783410.220710006	14615096.239178209
1816599.7883753285	14522792.863020644
1850407.019542302	14428771.705326825
1884843.4090337954	14333000.797890063
1919920.6655932867	14235447.5775699
1955650.715865947	14136078.875220338
1992045.7084538713	14034860.904411849
2029118.0180466783	13952743.679323224
2066880.2496290822	13871129.054521527
2105345.242766708	13787995.567665046
2144526.0759716653	13703314.952472525
2184436.0711494284	13617058.416622339
2225088.7981283693	13529196.631962925
2266498.079273693	13439699.724540794
2308677.994187172	13348537.264443092
2351642.884494346	13255678.255451154
2395407.358720879	13161091.124501342
2439986.29725955	13064743.710949998
2485394.857429798	12966603.255638376
2531648.478631358	12876537.236621559
2578762.8875937983	12798314.433487942
2626754.1037238385	12718635.890677914
2675638.4445520453	12637474.51662842
2725432.531281028	12554802.715597771
2776153.2944368036	12470592.378282834
2827817.979625338	12384814.872261591
2880444.1533962977	12297441.032257719
2934049.709215787	12208441.150224203
2988652.873550383	12117784.965242181
3044272.2120643063	12025441.653231941
3100926.6359319235	11931379.816472447
3158635.408267819	11835567.472925654
3217418.1506763715	11759949.011133535
3277294.849923382	11684401.959873045
3338285.8647317644	11607448.965133809
3400411.9327037027	11529063.862068478
3463694.1773717343	11449219.998897392
3528154.1153808828	11367890.227846792
3593813.6638046256	11285046.895918192
3660695.147596906	11200661.835486103
3728821.30718283	11114706.35472077
3798215.306190736	11027151.227832537
3868900.7393279755	10937966.685134895
3940901.6404034477	10847122.402922368
4014242.490499326	10764949.042156477
4088948.226294856	10694027.855308518
4165044.248545185	10621786.81310564
4242556.430717777	10548201.352815125
4321511.127789762	10473246.454587601
4401935.1852088785	10396896.63295003
4483855.948021181	10319125.928140422
4567301.270168747	10239907.89728114
4652299.523960189	10159215.605388155
4738879.609717651	10077021.616212763
4827070.965603188	9993297.982913014
4916903.577628021	9908016.238551496
5008407.989848212	9821147.386416191
5101615.314749833	9754330.63968199
5196557.243827657	9687122.46818706
5293266.058360566	9618663.541184727
5391774.640387494	9548930.581902202
5492116.483887789	9477899.880381934
5594325.706169377	9405547.28542008
5698437.0594691355	9331848.196354764
5804485.942768984	9256777.55470159
5912508.413831869	9180309.835633554
6022541.201461928	9102419.0393022
6134621.717992506	9023078.681997547
6248788.072006888	8942261.787143217
6365079.081295578	8870170.04408783
6483534.286054714	8808147.307720833
6604193.962330305	8744970.317676494
6727099.135712336	8680617.593097495
6852291.595284057	8615067.253364079
6979813.907830667	8548297.010654435
7109709.432312423	8480284.162366623
7242022.334607315	8411005.583399367
7376797.60252773	8340437.718289374
7514081.061116962	8268556.573202141
7653919.388230155	8195337.70777382
7796360.130405221	8120756.226801266
7941451.71902934	8044786.771777312
8089243.486805938	7987701.449688898
8239785.684528512	7929813.072562937
8393129.498166373	7870847.382888602
8549327.066268368	7810784.331696075
8708431.497690724	7749603.496900757
8870496.889654402	7687284.076359618
9035578.34613892	7623804.880798188
9203731.99661823	7559144.326605989
9375015.01514529	7493280.428497898
9549485.639791967	7426190.792038882
9727203.192450536	7357852.60602966
9908228.099003786	7288242.634750658
10092621.909870483	7226958.394382669
10280447.320933098	7174243.941441339
10471768.194855202	7120548.463561094
10666649.582795387	7065853.703700891
10865157.746525371	7010141.065053048
11067360.180959744	6953391.604720125
11273325.63710487	6895586.027274152
11483124.14543511	6836704.678195946
11696827.039703846	6776727.537192381
11914506.981197748	6715634.21138927
12136237.983442418	6653403.928397561
12362095.437367693	6590015.5292505305
12592156.13694151	6525670.637750343
12826498.3052806	6477922.659162519
13065201.621247198	6429286.082568571
13308347.24654076	6379744.371008399
13556017.853293689	6329280.679766281
13808297.652180923	6277877.850643448
14065272.421052363	6225518.406124139
14327029.534098294	6172184.543433055
14593657.991557576	6117858.128482209
14865248.449978571	6062520.689705167
15141893.25304352	6006153.411776491
15423686.462966273	5948737.129214332
15710723.892474487	5890252.3198639685
16003103.137387017	5839389.391774319
16300923.609797413	5795533.622304579
16604286.571875297	5750861.689502686
16913295.17029647	5705358.404430153
17228054.471313924	5659008.295479764
17548671.49648152	5611795.603115056
17875255.259042352	5563704.274511924
18207916.800994623	5514717.9581004605
18546769.230846975	5464819.998005265
18891927.762076646	5413993.428382262
19243509.75230332	5362220.967650126
19601634.743191857	5309485.012614375
19966424.501097932	5256336.72069367
20338003.0584698	5216941.354561973
20716496.75602067	5176812.833963209
21102034.285685964	5135937.5147679895
