Frequency [GHz]	Zx imag [Ohm/m]	Zy imag [Ohm/m]
1.000000000000000166e-10	1.184330921887115203e+07	2.890503462258224562e+07
1.032794731918951654e-10	1.184330911294235662e+07	2.890503449207327515e+07
1.066664958279539403e-10	1.184330900353965536e+07	2.890503435728430003e+07
1.101645949633656381e-10	1.184330889054912329e+07	2.890503421807495132e+07
1.137774133221491146e-10	1.184330877385309339e+07	2.890503407430027425e+07
1.175087130904807540e-10	1.184330865333005041e+07	2.890503392581054568e+07
1.213623798344240958e-10	1.184330852885448560e+07	2.890503377245113254e+07
1.253424265461399975e-10	1.184330840029678121e+07	2.890503361406233907e+07
1.294529978227915867e-10	1.184330826752305776e+07	2.890503345047923177e+07
1.336983741824946476e-10	1.184330813039505854e+07	2.890503328153145686e+07
1.380829765218092491e-10	1.184330798876998015e+07	2.890503310704309121e+07
1.426113707194128486e-10	1.184330784250034764e+07	2.890503292683241889e+07
1.472882723907502473e-10	1.184330769143384136e+07	2.890503274071178585e+07
1.521185517986104510e-10	1.184330753541314788e+07	2.890503254848738015e+07
1.571072389247450498e-10	1.184330737427580170e+07	2.890503234995902702e+07
1.622595287078087593e-10	1.184330720785399526e+07	2.890503214491998404e+07
1.675807864530767868e-10	1.184330703597443178e+07	2.890503193315674737e+07
1.730765534195724819e-10	1.184330685845812410e+07	2.890503171444879100e+07
1.787525525904235329e-10	1.184330667512021773e+07	2.890503148856836185e+07
1.846146946324547531e-10	1.184330648576978967e+07	2.890503125528024882e+07
1.906690840512252406e-10	1.184330629020966962e+07	2.890503101434151456e+07
1.969220255479172543e-10	1.184330608823620714e+07	2.890503076550125331e+07
2.033800305846981002e-10	1.184330587963907793e+07	2.890503050850034878e+07
2.100498241653915480e-10	1.184330566420106217e+07	2.890503024307116494e+07
2.169383518385184289e-10	1.184330544169781543e+07	2.890502996893730387e+07
2.240527869300018610e-10	1.184330521189763211e+07	2.890502968581329659e+07
2.314005380130653023e-10	1.184330497456121445e+07	2.890502939340431243e+07
2.389892566231049743e-10	1.184330472944141366e+07	2.890502909140585363e+07
2.468268452255692806e-10	1.184330447628297284e+07	2.890502877950343862e+07
2.549214654451423314e-10	1.184330421482227184e+07	2.890502845737226680e+07
2.632815465648021228e-10	1.184330394478703476e+07	2.890502812467688322e+07
2.719157943036017723e-10	1.184330366589606367e+07	2.890502778107085079e+07
2.808331998823172083e-10	1.184330337785893865e+07	2.890502742619635165e+07
2.900430493863991314e-10	1.184330308037571609e+07	2.890502705968383700e+07
2.995549334359813486e-10	1.184330277313660830e+07	2.890502668115163967e+07
3.093787571730138678e-10	1.184330245582167618e+07	2.890502629020558298e+07
3.195247505759212065e-10	1.184330212810048833e+07	2.890502588643855229e+07
3.300034791125284578e-10	1.184330178963176906e+07	2.890502546943008900e+07
3.408258547423451742e-10	1.184330144006306119e+07	2.890502503874595091e+07
3.520031472796679687e-10	1.184330107903033867e+07	2.890502459393763915e+07
3.635469961293320139e-10	1.184330070615764707e+07	2.890502413454195857e+07
3.754694224073336536e-10	1.184330032105669379e+07	2.890502366008052230e+07
3.877828414589456106e-10	1.184329992332646064e+07	2.890502317005924508e+07
4.005000757873611052e-10	1.184329951255276799e+07	2.890502266396785527e+07
4.136343684063274911e-10	1.184329908830786310e+07	2.890502214127933234e+07
4.271993966306778827e-10	1.184329865014996007e+07	2.890502160144937783e+07
4.412092863191189219e-10	1.184329819762278907e+07	2.890502104391584545e+07
4.556786265841064474e-10	1.184329773025510833e+07	2.890502046809815243e+07
4.706224849841281415e-10	1.184329724756022915e+07	2.890501987339667231e+07
4.860564232142136024e-10	1.184329674903550185e+07	2.890501925919211656e+07
5.019965133110081441e-10	1.184329623416179046e+07	2.890501862484488264e+07
5.184593543892912175e-10	1.184329570240293257e+07	2.890501796969440579e+07
5.354620899273606527e-10	1.184329515320518613e+07	2.890501729305844381e+07
5.530224256192902378e-10	1.184329458599664643e+07	2.890501659423238784e+07
5.711586478126431938e-10	1.184329400018665381e+07	2.890501587248851731e+07
5.898896425508497150e-10	1.184329339516518079e+07	2.890501512707525119e+07
6.092349152400710261e-10	1.184329277030219138e+07	2.890501435721635446e+07
6.292146109610343618e-10	1.184329212494698726e+07	2.890501356211014464e+07
6.498495354469890483e-10	1.184329145842752978e+07	2.890501274092863500e+07
6.711611767496282870e-10	1.184329077004974894e+07	2.890501189281670004e+07
6.931717276155404727e-10	1.184329005909680203e+07	2.890501101689116657e+07
7.159041085964887260e-10	1.184328932482834160e+07	2.890501011223988608e+07
7.393819919175865964e-10	1.184328856647974625e+07	2.890500917792081088e+07
7.636298261282244400e-10	1.184328778326131217e+07	2.890500821296098828e+07
7.886728615614152294e-10	1.184328697435743921e+07	2.890500721635556966e+07
8.145371766280743462e-10	1.184328613892577961e+07	2.890500618706674129e+07
8.412497049736117954e-10	1.184328527609636448e+07	2.890500512402266636e+07
8.688382635251186617e-10	1.184328438497068733e+07	2.890500402611634508e+07
8.973315814583522479e-10	1.184328346462078393e+07	2.890500289220447466e+07
9.267593301146878953e-10	1.184328251408825442e+07	2.890500172110627219e+07
9.571521538991863169e-10	1.184328153238326125e+07	2.890500051160221919e+07
9.885417021919573871e-10	1.184328051848351955e+07	2.890499926243280619e+07
1.020960662306046580e-09	1.184327947816871479e+07	2.890499797567351162e+07
1.054442793526168950e-09	1.184327840759629011e+07	2.890499664862149954e+07
1.089022962263730067e-09	1.184327730191473104e+07	2.890499527804917470e+07
1.124737178364752061e-09	1.184327615997263975e+07	2.890499386252929643e+07
1.161622632608501755e-09	1.184327498058086447e+07	2.890499240058782324e+07
1.199717735435884489e-09	1.184327376251125336e+07	2.890499089070237055e+07
1.239062156947916503e-09	1.184327250449537300e+07	2.890498933130063117e+07
1.279696868215940940e-09	1.184327120522320271e+07	2.890498772075872868e+07
1.321664183946605026e-09	1.184326986334174871e+07	2.890498605739953741e+07
1.365007806546013663e-09	1.184326847745365091e+07	2.890498433949092403e+07
1.409772871628966933e-09	1.184326704611572437e+07	2.890498256524395943e+07
1.456005995020649598e-09	1.184326556783745438e+07	2.890498073281104118e+07
1.503755321299737753e-09	1.184326404107944667e+07	2.890497884028397873e+07
1.553070573933460069e-09	1.184326246425181814e+07	2.890497688569200039e+07
1.604003107056820079e-09	1.184326083571254835e+07	2.890497486699969694e+07
1.656605958949914401e-09	1.184325915376577340e+07	2.890497278210492432e+07
1.710933907269014249e-09	1.184325741666000336e+07	2.890497062883658335e+07
1.767043526088946692e-09	1.184325562258631364e+07	2.890496840495238826e+07
1.824993244816152494e-09	1.184325376967645995e+07	2.890496610813650116e+07
1.884843409033795523e-09	1.184325185600092262e+07	2.890496373599715903e+07
1.946656343342262358e-09	1.184324987956691161e+07	2.890496128606414050e+07
2.010496416260498236e-09	1.184324783831627667e+07	2.890495875578622520e+07
2.076430107255774870e-09	1.184324573012337275e+07	2.890495614252852648e+07
2.144526075971667793e-09	1.184324355279284902e+07	2.890495344356973469e+07
2.214855233726359314e-09	1.184324130405735411e+07	2.890495065609932318e+07
2.287490817355702788e-09	1.184323898157518171e+07	2.890494777721456066e+07
2.362508465477946229e-09	1.184323658292782865e+07	2.890494480391754583e+07
2.439986297259550245e-09	1.184323410561747849e+07	2.890494173311205208e+07
2.520004993764092080e-09	1.184323154706439935e+07	2.890493856160031632e+07
2.602647881969005809e-09	1.184322890460425802e+07	2.890493528607970104e+07
2.688001021537606561e-09	1.184322617548534460e+07	2.890493190313926712e+07
2.776153294436799262e-09	1.184322335686570778e+07	2.890492840925620869e+07
2.867196497493770032e-09	1.184322044581019692e+07	2.890492480079218745e+07
2.961225437988034610e-09	1.184321743928739987e+07	2.890492107398955896e+07
3.058338032378433485e-09	1.184321433416649513e+07	2.890491722496743873e+07
3.158635408267817403e-09	1.184321112721398100e+07	2.890491324971767142e+07
3.262222009711669644e-09	1.184320781509032100e+07	2.890490914410065114e+07
3.369205705980266915e-09	1.184320439434645139e+07	2.890490490384102240e+07
3.479697903887691433e-09	1.184320086142020486e+07	2.890490052452321723e+07
3.593813663804627762e-09	1.184319721263258718e+07	2.890489600158685446e+07
3.711671819475765297e-09	1.184319344418396056e+07	2.890489133032201231e+07
3.833395101766601886e-09	1.184318955215006880e+07	2.890488650586428493e+07
3.959110266468459240e-09	1.184318553247797303e+07	2.890488152318976447e+07
4.088948226294862618e-09	1.184318138098180294e+07	2.890487637710976601e+07
4.223044187206674123e-09	1.184317709333843365e+07	2.890487106226545572e+07
4.361537789208003199e-09	1.184317266508294642e+07	2.890486557312224805e+07
4.504573251759458750e-09	1.184316809160400927e+07	2.890485990396406129e+07
4.652299523960189308e-09	1.184316336813905463e+07	2.890485404888735712e+07
4.804870439655131104e-09	1.184315848976933584e+07	2.890484800179497898e+07
4.962444877628916452e-09	1.184315345141478814e+07	2.890484175638982281e+07
5.125186927053329472e-09	1.184314824782875367e+07	2.890483530616828427e+07
5.293266058360561204e-09	1.184314287359251082e+07	2.890482864441346005e+07
5.466857299720180771e-09	1.184313732310963050e+07	2.890482176418816671e+07
5.646141419303669251e-09	1.184313159060015343e+07	2.890481465832773224e+07
5.831305113526221869e-09	1.184312567009456269e+07	2.890480731943251193e+07
6.022541201461928965e-09	1.184311955542758107e+07	2.890479973986018822e+07
6.220048825634711276e-09	1.184311324023173377e+07	2.890479191171782091e+07
6.424033659394191079e-09	1.184310671793073043e+07	2.890478382685362548e+07
6.634708121092347870e-09	1.184309998173261620e+07	2.890477547684847564e+07
6.852291595284060743e-09	1.184309302462268807e+07	2.890476685300714150e+07
7.077010661181889919e-09	1.184308583935620636e+07	2.890475794634924829e+07
7.309099328602911004e-09	1.184307841845083795e+07	2.890474874759989604e+07
7.548799281653435948e-09	1.184307075417886488e+07	2.890473924718002230e+07
7.796360130405233414e-09	1.184306283855914883e+07	2.890472943519642949e+07
8.052039670825474778e-09	1.184305466334880516e+07	2.890471930143145844e+07
8.316104153230961616e-09	1.184304622003462911e+07	2.890470883533238992e+07
8.588828559546249041e-09	1.184303749982422963e+07	2.890469802600040287e+07
8.870496889654407999e-09	1.184302849363686889e+07	2.890468686217927188e+07
9.161402457138517586e-09	1.184301919209400564e+07	2.890467533224362507e+07
9.461848194721997291e-09	1.184300958550953865e+07	2.890466342418682203e+07
9.772146969725725887e-09	1.184299966387971118e+07	2.890465112560848892e+07
1.009262190987047331e-08	1.184298944118934497e+07	2.890463842500647902e+07
1.042360673976401127e-08	1.184297894503015466e+07	2.890462531120698527e+07
1.076544612842315905e-08	1.184296810465223342e+07	2.890461176734394953e+07
1.111849604819270880e-08	1.184295690876702778e+07	2.890459777931355685e+07
1.148312414543511117e-08	1.184294534571576864e+07	2.890458333254946396e+07
1.185971012337669343e-08	1.184293340345734172e+07	2.890456841200761124e+07
1.224864613750930795e-08	1.184292106955575198e+07	2.890455300215058774e+07
1.265033720395903769e-08	1.184290833540649712e+07	2.890453708771010488e+07
1.306520162124721228e-08	1.184289520805857703e+07	2.890452065584416687e+07
1.349367140588306343e-08	1.184288165020279773e+07	2.890450368509959430e+07
1.393619274224142065e-08	1.184286764772077650e+07	2.890448615780400112e+07
1.439322644719406651e-08	1.184285318603110872e+07	2.890446805570544675e+07
1.486524844997857277e-08	1.184283825007420778e+07	2.890444935995342582e+07
1.535275028780422776e-08	1.184282282429660298e+07	2.890443005107922480e+07
1.585623961771137302e-08	1.184280689327860437e+07	2.890441010882580280e+07
1.637624074521687477e-08	1.184279048495708406e+07	2.890438950206164643e+07
1.691329517029648562e-08	1.184277353852905892e+07	2.890436821950418130e+07
1.746796215127245689e-08	1.184275603634746931e+07	2.890434623899094760e+07
1.804081928719382751e-08	1.184273796018652618e+07	2.890432353763267770e+07
1.863246311931559514e-08	1.184271929122272879e+07	2.890430009178944677e+07
1.924350975230330612e-08	1.184270001001527160e+07	2.890427587704607472e+07
1.987459549580983990e-08	1.184268009648578428e+07	2.890425086818668619e+07
2.052637752709252173e-08	1.184265959810632095e+07	2.890422504646836594e+07
2.119953457536071000e-08	1.184263843706825748e+07	2.890419837895902619e+07
2.189476762856620985e-08	1.184261658205962367e+07	2.890417083689586446e+07
2.261280066337277307e-08	1.184259401032184064e+07	2.890414239159812033e+07
2.335438139906479724e-08	1.184257069834996946e+07	2.890411301344446838e+07
2.412028207618007283e-08	1.184254662186822668e+07	2.890408267184214294e+07
2.491130026067788373e-08	1.184252175580472313e+07	2.890405133519510180e+07
2.572825967447932303e-08	1.184249614460409991e+07	2.890401898222489655e+07
2.657201105324503850e-08	1.184246971823455393e+07	2.890398557224169001e+07
2.744343303228365032e-08	1.184244242521930486e+07	2.890395106658704951e+07
2.834343306151309448e-08	1.184241423713693582e+07	2.890391542932871357e+07
2.927294835042816131e-08	1.184238512463396229e+07	2.890387862335604429e+07
3.023294684405776334e-08	1.184235505739425682e+07	2.890384061034136266e+07
3.122442823092858392e-08	1.184232400410748646e+07	2.890380135070006177e+07
3.224842498408442807e-08	1.184229201663029008e+07	2.890376080325454473e+07
3.330600343624588813e-08	1.184225903549626842e+07	2.890371892587256432e+07
3.439826489022924478e-08	1.184222497275479883e+07	2.890367567513306439e+07
3.552634676578139226e-08	1.184218979293485358e+07	2.890363100599716231e+07
3.669142378402493899e-08	1.184215345940214582e+07	2.890358487194892392e+07
3.789470919074667737e-08	1.184211593432096951e+07	2.890353722494693473e+07
3.913745601980383687e-08	1.184207717861481942e+07	2.890348801537429541e+07
4.042095839796305955e-08	1.184203724340902455e+07	2.890343719922830164e+07
4.174655289253134782e-08	1.184199610277972557e+07	2.890338472483164817e+07
4.311561990318228626e-08	1.184195361295451783e+07	2.890333052955122292e+07
4.452958509942655287e-08	1.184190972968688048e+07	2.890327455695110187e+07
4.598992090522439315e-08	1.184186440727924928e+07	2.890321674874456599e+07
4.749814803228499868e-08	1.184181759853540733e+07	2.890315704473339394e+07
4.905583706365045989e-08	1.184176925471135788e+07	2.890309538274518400e+07
5.066461008921269181e-08	1.184171941177243739e+07	2.890303170559257641e+07
5.232614239486661694e-08	1.184166810780734383e+07	2.890296595428960398e+07
5.404216420705915059e-08	1.184161512134246714e+07	2.890289804669027776e+07
5.581446249454960394e-08	1.184156039720067941e+07	2.890282791207943112e+07
5.764488282925879445e-08	1.184150387839533575e+07	2.890275547742282972e+07
5.953533130814369715e-08	1.184144550607091933e+07	2.890268066729108244e+07
6.148777653810024108e-08	1.184138521944177151e+07	2.890260340378111601e+07
6.350425168595962148e-08	1.184132303030544706e+07	2.890252361123060435e+07
6.558685659571428548e-08	1.184125910485954024e+07	2.890244122139948606e+07
6.773775997517751128e-08	1.184119308299577422e+07	2.890235612961594388e+07
6.995920165435375620e-08	1.184112489596268535e+07	2.890226824727016687e+07
7.225349491787214948e-08	1.184105447275412455e+07	2.890217748284642398e+07
7.462302891391107044e-08	1.184098174003531970e+07	2.890208374182774127e+07
7.707027114212294845e-08	1.184090662206649780e+07	2.890198692659747228e+07
7.959777002314985573e-08	1.184082907371716760e+07	2.890188694002780691e+07
8.220815755240541849e-08	1.184074947173284367e+07	2.890178372901289165e+07
8.490415204088747078e-08	1.184066725922278501e+07	2.890167713322040811e+07
8.768856094587425811e-08	1.184058235057549924e+07	2.890156704164749011e+07
9.056428379445295063e-08	1.184049465737188794e+07	2.890145333965094760e+07
9.353431520292386860e-08	1.184040408829317242e+07	2.890133590882791579e+07
9.660174799522647250e-08	1.184031054902580008e+07	2.890121462689251825e+07
9.976977642363202159e-08	1.184021394216323085e+07	2.890108936754856631e+07
1.030416994950587396e-07	1.184011483907261677e+07	2.890096007161100581e+07
1.064209244064724761e-07	1.184001253845135123e+07	2.890082654101777822e+07
1.099109700929497372e-07	1.183990688290864043e+07	2.890068863132454455e+07
1.135154708920999096e-07	1.183979776242072880e+07	2.890054619891989231e+07
1.172381803286598596e-07	1.183968506335567124e+07	2.890039909548271075e+07
1.210829750232039531e-07	1.183956866835498624e+07	2.890024716782774404e+07
1.250538587290391570e-07	1.183944845621145703e+07	2.890009025774606317e+07
1.291549665014884007e-07	1.183932508763256110e+07	2.889992830073491856e+07
1.333905690039058854e-07	1.183919788187094778e+07	2.889976105864391476e+07
1.377650769549053468e-07	1.183906650443048403e+07	2.889958833189336956e+07
1.422830457214352017e-07	1.183893081850207783e+07	2.889940994061534479e+07
1.469491800624817218e-07	1.183879068279002607e+07	2.889922569904318079e+07
1.517683390283405561e-07	1.183864595136486366e+07	2.889903541531804949e+07
1.567455410205594968e-07	1.183849647351141460e+07	2.889883889128916711e+07
1.618859690178197646e-07	1.183834300332878344e+07	2.889863603496754169e+07
1.671949759731990056e-07	1.183818498250209726e+07	2.889842658576164395e+07
1.726780903884356132e-07	1.183802177942475863e+07	2.889821026772518456e+07
1.783410220710008120e-07	1.183785322414625064e+07	2.889798685559670627e+07
1.841896680799711039e-07	1.183767914114257134e+07	2.889775611672737449e+07
1.902301188668944219e-07	1.183749934913345613e+07	2.889751781083867699e+07
1.964686646180446931e-07	1.183731366089360043e+07	2.889727168977224454e+07
2.029118018046678038e-07	1.183712287111551687e+07	2.889701764084884524e+07
2.095662399480432992e-07	1.183692674603335373e+07	2.889675539441603422e+07
2.164389086064020114e-07	1.183672418908169679e+07	2.889648454768176004e+07
2.235369645909794139e-07	1.183651498932911269e+07	2.889620481860144809e+07
2.308677994187169850e-07	1.183629892892672680e+07	2.889591591588093340e+07
2.384390470093720426e-07	1.183607578288136423e+07	2.889561753867315501e+07
2.462585916350547006e-07	1.183584531882126629e+07	2.889530937626483291e+07
2.543345761304648365e-07	1.183560830648694001e+07	2.889499125972784311e+07
2.626754103723835758e-07	1.183536515566154197e+07	2.889466295661753416e+07
2.712897800372467241e-07	1.183511403077000938e+07	2.889432388689473644e+07
2.801866556459195443e-07	1.183485467030498013e+07	2.889397369747127593e+07
2.893753019050950594e-07	1.183458680418303236e+07	2.889361202367955446e+07
2.988652873550382326e-07	1.183431015346342325e+07	2.889323848889278620e+07
3.086664943337274455e-07	1.183402443005762994e+07	2.889285270413282886e+07
3.187891292677645596e-07	1.183373023524602503e+07	2.889245441689511016e+07
3.292437333007768907e-07	1.183342913276191242e+07	2.889204352291585505e+07
3.400411932703706463e-07	1.183311815570255555e+07	2.889161915377870575e+07
3.511927530450727317e-07	1.183279698023390211e+07	2.889118086756946892e+07
3.627100252330649086e-07	1.183246527190185711e+07	2.889072820788149163e+07
3.746050032748993774e-07	1.183212268528398685e+07	2.889026070334040374e+07
3.868900739327976195e-07	1.183176886362982355e+07	2.888977786711321399e+07
3.995780301895269929e-07	1.183140400256738439e+07	2.888927930113051087e+07
4.126820845702951630e-07	1.183103161884360760e+07	2.888876520969017223e+07
4.262158829015325345e-07	1.183064702289543673e+07	2.888823425875886530e+07
4.401935185208874400e-07	1.183024981422625110e+07	2.888768589543410018e+07
4.546295469532399562e-07	1.182983957920524292e+07	2.888711954868111014e+07
4.695390010680058238e-07	1.182941589063669741e+07	2.888653462873817980e+07
4.849374067335232931e-07	1.182897830731512979e+07	2.888593052650252730e+07
5.008407989848212921e-07	1.182852637356583774e+07	2.888530661289600655e+07
5.172657387216018967e-07	1.182806631709634699e+07	2.888466356696477905e+07
