# Frequency (Hz)	Real Part (Ohm)
1000.0	0.0010257298246
1018.6101701559753	0.0010391489691097013
1037.566678745186	0.0010528178461820766
1056.875971184804	0.001066741103382609
1076.5446128423157	0.0010809234747687696
1096.5792912678098	0.0010953697824996412
1116.9868184678226	0.0011100849384755097
1137.7741332214914	0.0011250739460079617
1158.9483034398106	0.0011403419015210612
1180.5165285688054	0.0011558939962841939
1202.4861420374123	0.0011717355181771495
1224.8646137509306	0.0011878718534880628
1247.6595526308697	0.001204308488744807
1270.8787092020582	0.0012203719008988248
1294.529978227916	0.0012360822888065706
1318.6214013947485	0.0012520850497064952
1343.1611700460153	0.0012683856247097322
1368.1576279674719	0.001284989556187421
1393.619274224142	0.0013019024896551669
1419.5547660501015	0.001319130175692585
1445.9729217920194	0.0013366784718985521
1472.882723907502	0.0013545533448828602
1500.2933220192183	0.0013727608722949231
1528.2140360258693	0.0013913072448902435
1556.654359271062	0.00141019876863534
1585.6239617711371	0.0014294021975378038
1615.132693503091	0.0014474015570870246
1645.1905877536624	0.0014657358877801544
1675.807864530767	0.001484411423487179
1706.9949340384078	0.0015034345140914666
1738.7624002162504	0.001522811627648791
1771.1210643450886	0.0015425493525865505
1804.0819287193826	0.001562654399943892
1837.6562003881704	0.0015831336056535477
1871.8552949655793	0.001603993932866121
1906.690840512252	0.0016252424743176278
1942.1746814890264	0.001646886454741115
1978.3188827841643	0.0016689332333231343
2015.1357338155585	0.0016903651878242554
2052.6377527092523	0.0017113057474869293
2090.8376905557498	0.0017326360145280867
2129.748535745521	0.0017543632414683537
2169.3835183851843	0.0017764948157989952
2209.756114795903	0.0017990382624937513
2250.880052095462	0.0018220012465673973
2292.7693128656488	0.0018453915756819431
2335.438139906479	0.0018692172028013155
2378.9010410788933	0.0018934862288954516
2423.1727942376006	0.0019182069056947206
2468.2684522556924	0.0019433876384955934
2514.2033481427966	0.001968924045482288
2560.9931002584594	0.001992769860043775
2608.6536176225477	0.0020170594492717577
2657.2011053245064	0.002041801071888294
2706.652070033241	0.0020670031403116572
2757.0233256095826	0.002092674223516662
2808.3319988231724	0.002118823049948201
2860.5955351757416	0.0021454585104890085
2913.831704832789	0.0021725896614826655
2968.0586086656026	0.00220022572781284
3023.2946844057765	0.0022283761060398607
3079.5587129142264	0.002257050367595643
3136.8698245668766	0.0022862582620380737
3195.2475057592133	0.0023144990783548116
3254.711605531848	0.002342079636842153
3315.282342319423	0.002370173474215941
3376.9803108250912	0.0023987901426835907
3439.8264890229243	0.0024279393722207187
3503.8422452906757	0.0024576310738794504
3569.0493456752292	0.002487875343158269
3635.4699612933177	0.002518682463434611
3703.126675869927	0.0025500629094613115
3772.0424934169973	0.0025820273509281383
3842.240846055061	0.0026145866560896053
3913.745601980384	0.002647751895460285
3986.581073580439	0.0026812983393562253
4060.7720257003657	0.002712531347055797
4136.343684063274	0.0027443456063431394
4213.321743847289	0.002776751934409206
4291.732378422157	0.0028097613497547113
4371.602248248501	0.0028433850759365456
4452.958509942655	0.002877634545383904
4535.828825510186	0.002912521403285427
4620.241371751313	0.002948057511548708
4706.224849841281	0.0029842549528334462
4793.808495089106	0.0030211260346597046
4883.02208687788	0.0030586832935925877
4973.895958790063	0.003096939499504802
5066.461008921268	0.0031337327421754363
5160.7487103859075	0.00316966950299933
5256.791122018419	0.0032062750530570117
5354.620899273607	0.003243561838629922
5454.271305329836	0.003281542537626913
5555.7762223988775	0.0033202300638948794
5659.170163246242	0.003359637571609606
5764.488282925873	0.0033997784597483266
5871.766390733255	0.0034406663766455227
5981.040962380945	0.0034823152246335
6092.349152400711	0.003524739164769331
6205.7288067765	0.0035679526216497765
6321.218475812449	0.0036115409308787594
6438.8574272404185	0.0036520403754989124
6558.685659571435	0.003693293521674669
6680.743915695614	0.0037353143959202233
6805.073696735206	0.0037781172857855906
6931.717276155407	0.0038217167447145216
7060.717714137772	0.003866127596992826
7192.118872221193	0.003911364942788805
7325.96542821523	0.003957444163287448
7462.302891391108	0.004004380925920227
7601.17761795533	0.0040521911896921736
7742.636826811269	0.004100891210608117
7886.728615614156	0.004150497547199908
8033.501977124735	0.004197963431197376
8183.00681586739	0.004244356499271815
8335.293965098195	0.004291612950237177
8490.415204088747	0.004339748851795971
8648.423275731726	0.004388780570673387
8809.37190447399	0.004438724778182149
8973.31581458352	0.004489598455890955
9140.310748756232	0.004541418901398385
9310.413487069076	0.004594203734214265
9483.681866285926	0.0046479709017505045
9660.174799522645	0.004702738685423396
9839.952296278227	0.004758525706869505
10023.075482838643	0.004814632498880481
10209.606623060476	0.004866707766130617
10399.609139541202	0.00491975216296519
10593.1476351837	0.0049737837250506765
10790.287915161836	0.005028820823700366
10991.097009294961	0.005084882172120817
11195.643194838794	0.005141986831774555
11403.99601970033	0.0052001542188611395
11616.22632608502	0.005259404110918933
11832.40627458378	0.005319756653549648
12052.609368708414	0.005381232367268065
12276.910479883603	0.005443852154479249
12505.385872903913	0.005507637306585556
12738.113231864783	0.0055683779698465505
12975.171686575868	0.005627820580459443
13216.641839466038	0.005688369428170359
13462.60579298911	0.005750045100239928
13713.147177539455	0.005812868567061189
13968.351179887397	0.005876861189289783
14228.30457214352	0.005942044725106778
14493.09574126215	0.006008441337616695
14762.81471909391	0.0060760736023832106
15037.553212997384	0.006144964515105059
15317.404637020798	0.006215137499434857
15602.46414366368	0.006286616414943387
15892.828656229764	0.0063582905939102465
16188.596901781993	0.006424807507483764
16489.86944471065	0.006492562312137126
16796.74872092653	0.006561578045233972
17109.339072690134	0.006631878172867192
17427.746784089173	0.006703486597837651
17752.08011717636	0.006776427667781419
18082.44934877952	0.006850726183448195
18418.96680799711	0.006926407407133863
18761.746914391195	0.007003497071269932
19110.90621689136	0.007082021387172844
19466.56343342263	0.007162007053956098
19828.83949127071	0.00724348126760822
20197.857568198782	0.007320724273739133
20573.743134329114	0.007396449731982219
20956.623994804308	0.0074735844538883454
21346.630333242454	0.00755215466609409
21743.8947560008	0.007632187083318163
22148.55233726359	0.007713708917444771
22560.74066496859	0.007796747886775902
22980.599887588487	0.007881332225455864
23408.272761782944	0.0079674906930712
23843.904700937208	0.008055252584429226
24287.643824604504	0.008144647739518632
24739.64100886812	0.008235706553655374
25200.049937640895	0.008326740489214899
25669.027154919517	0.008411287219374229
26146.732118010917	0.008497407378567945
26633.327251749808	0.008585130248578113
27128.978003724646	0.008674485656125745
27633.852900531667	0.008765503983012193
28148.123605075813	0.00885821617644932
28671.964974937695	0.008952653759581838
29205.55512182745	0.009048848842205566
29749.075472144435	0.009146834131685107
30302.71082866393	0.00924664294407462
30866.649433372742	0.009348309215445787
31441.08303147265	0.009451867513426287
32026.206936576502	0.009549651457061725
32622.220097116733	0.00964572204738655
33229.325163989684	0.009743580527744282
33847.72855945983	0.009843260171072699
34477.640547344636	0.009944794869524537
35119.275304507275	0.0100482191459913
35772.850993678774	0.010153568165841377
36438.58983763541	0.010260877748876603
37116.71819475767	0.01037018438151151
37807.466635993485	0.010481525229178912
38511.070023255685	0.010594938148966719
39227.76758927723	0.010710461702489675
39957.803018952654	0.010825609935223517
40701.42453219439	0.010932706513733657
41458.88496832911	0.011041796177792981
42230.441872066716	0.011152916019062707
43016.35758106799	0.011266103819486182
43816.89931514194	0.011381398064135103
44632.33926710397	0.011498837954294946
45462.95469532399	0.011618463420793762
46309.02801799736	0.011740315137579109
47170.84690917023	0.011864434535547648
48048.704396551344	0.011990863816632018
48942.89896114532	0.012119645968150069
49853.73463873894	0.012250824777420925
50781.5211232767	0.012374230333367467
51726.57387216024	0.012495772690753363
52689.21421350677	0.012619576972091357
53669.76945540476	0.012745685272171093
54668.57299720181	0.012874140469173387
55685.96444286408	0.013004986239249314
56722.28971644549	0.01313826707137056
57777.90117970507	0.013274028282456097
58853.1577519145	0.013412316032780517
59948.42503189408	0.013553177341668964
61064.07542232036	0.013696660103484215
62200.48825634718	0.013842813103911318
63358.04992658254	0.013988062781700136
64537.15401646702	0.014123419792455457
65738.20143409586	0.014261295820212738
66961.60054853215	0.01440173774430701
68207.76732865692	0.014544793316505726
69477.1254846024	0.014690511177244807
70770.10661181889	0.014838940872167007
72087.15033782135	0.014990132868967906
73428.70447166759	0.01514413857455549
74795.22515621828	0.01530101035252907
76187.17702322999	0.015460801540983393
77605.0333513357	0.015623566470644274
79049.2762269642	0.01578936048334157
80520.39670825469	0.01594479277162708
82018.8949920221	0.016098287097682275
83545.28058382872	0.01625463797926332
85100.07247122246	0.016413898577354622
86683.79930019773	0.016576123042275546
88296.99955494082	0.016741366532092107
89940.22174092053	0.016909685231371346
91614.0245713852	0.017081136370284578
93318.9771573324	0.01725577824406643
95055.65920101192	0.017433670232835714
96824.66119303115	0.01761487282178538
98626.5846131283	0.017799447621748125
100462.04213468132	0.017982348549715477
102331.65783302448	0.018153184707050143
104236.06739764012	0.0183272001543416
106175.9183482999	0.018504454058716917
108151.87025522892	0.018685006688413493
110164.59496336569	0.018868919433270816
112214.77682079801	0.019056254825603778
114303.11291144785	0.019247076561464294
116430.31329208757	0.019441449522298634
118597.10123376705	0.019639439797007847
120804.21346773289	0.0198411147044186
123052.40043592616	0.020046542816172463
125342.42654613995	0.02025579398004088
127675.07043192645	0.02045132737337914
130051.12521734099	0.020644963214752596
132471.39878661174	0.020842202652082285
134936.71405883064	0.02104311274890215
137447.90926775365	0.021247761816809888
140005.8382468096	0.021456219438693646
142611.37071941295	0.021668556492390998
145265.39259467812	0.021884845174788056
147968.80626863963	0.022105159026367328
150722.53093107554	0.02232957295621221
153527.5028780421	0.022558163267476877
156384.67583022476	0.022791007683330214
159295.0212572123	0.02302107627891885
162259.5287078087	0.02323651062604113
165279.2061464897	0.023455954243020816
168355.08029612005	0.023679481743052087
171488.19698705408	0.023907169127893528
174679.62151272455	0.02413909381370922
177930.43899185772	0.024375334657391307
181241.75473742394	0.024615971983372134
184614.69463245454	0.02486108761093529
188050.40551285836	0.025110764882035348
191550.0555573528	0.025365088689634625
195114.83468466165	0.025624145506568035
198745.9549580986	0.025888023414944672
202444.65099768018	0.026133826608903638
206212.18039991445	0.026377944406105944
210049.8241653915	0.026626605277052264
213958.88713434213	0.02687989376911803
217940.6984302958	0.02713789600311972
221996.61191199525	0.02740069970259675
226128.00663372793	0.027668394223638718
230336.2873142131	0.02794107058526707
234622.88481422624	0.028218821500382837
238989.25662310526	0.028501741407289918
243436.8873543108	0.028789926501804997
247967.289250216	0.02908347476996548
252582.00269627848	0.029372693770192054
257282.59674479323	0.02964423484413711
262070.66964838552	0.02992082934367265
266947.8494034318	0.030202571313908688
271915.7943036019	0.030489556550150964
276976.1935036891	0.030781882630471925
282130.76759394706	0.03107964894888869
287381.2691851069	0.03138295674915794
292729.4835042813	0.031691909159199776
298177.22900196735	0.03200661122616265
303726.3579703311	0.03232716995214011
309378.75717301364	0.03265369433055299
315136.34848664823	0.032986295383208256
321001.08955431683	0.03329516112357557
326974.97445117676	0.03360280522064049
333060.03436245886	0.03391617462669925
339258.33827409917	0.03423537589072644
345571.9936762143	0.03456051754459121
352003.1472796675	0.03489171013995912
358553.9857459817	0.03522906628588131
365226.7364308175	0.035572700687082244
372023.6681413066	0.035922730182960966
378947.09190746717	0.036279273787317635
385999.36176797637	0.03664245272881932
393182.87557057705	0.037012390492219514
400500.07578736113	0.037375833201457945
407953.45034524484	0.0377179935896175
415545.53347188793	0.0380665216408214
423278.90655735444	0.038421535858362235
431156.19903182285	0.038783156950899386
439180.0892596086	0.0391515078735006
447353.3054498463	0.03952671386944853
455678.6265841068	0.03990890251282465
464158.8833612772	0.04029820375188558
472796.9591600391	0.040694749953247455
481595.79101923504	0.041098675946891344
490558.37063650455	0.04151011907200736
499687.7453854889	0.04192921922369135
508987.0193519675	0.04231722880161021
518459.3543892913	0.042704843643267446
528107.971193433	0.043099672063082864
537936.1503980698	0.04350184830697346
547947.2336900292	0.043911509119195606
558144.6249454955	0.04432879378883933
568531.7913873753	0.04475384419718872
579112.2647641759	0.045186804865962306
589889.6425508494	0.0456278230064526
600867.5891719692	0.046077048569579344
612049.837247669	0.04653463429687421
623440.1888627863	0.04700073577241505
635042.5168595961	0.047457350005344144
646860.7661546321	0.04788842092405203
658898.9550799957	0.0483275141459064
671161.1767496272	0.04877477896733371
683651.6004510238	0.04923036746319267
696374.4730628222	0.049694434538480624
709334.1204987989	0.05016713798100347
722534.9491787221	0.05064863851502503
735981.4475265755	0.05113909985591482
749678.1874966878	0.05163868876581362
763629.8261282243	0.0521475751103336
777841.1071286482	0.05266593191631515
792316.8624866261	0.05319393543065759
807062.0141149492	0.053681294209309914
822081.575524054	0.05416960227857518
837380.6535266489	0.05466699784409797
852964.4499741016	0.05517365002572996
868838.2635251193	0.05568973109067208
885007.4914473438	0.05621541651204698
901477.6314524917	0.0567508850285622
918254.2835656281	0.057296318705282914
935343.1520292377	0.05785190299553621
952750.0472427299	0.058417826803967184
970480.8877380306	0.0589942825507683
988541.7021919573	0.05958146623710476
1006938.6314760271	0.06015506032024329
1025677.9307444209	0.060698088483436045
1044765.9715608053	0.061251222493145366
1064209.2440647245	0.06181465042089438
1084014.359178331	0.06238856383824942
1104188.0508541602	0.06297315788195625
1124737.1783647507	0.06356863132028862
1145668.7286348727	0.06417518662063179
1166989.8186171474	0.06479303001832329
1188707.6977119034	0.06542237158677558
1210829.7502320393	0.066063425308903
1233363.4979137746	0.06671640914987831
1256316.6024741214	0.06738154513124338
1279696.8682159416	0.06799363313250963
1303512.2446815087	0.0686087420069542
1327770.829355429	0.06923529816221669
1352480.8704178738	0.06987351463414086
1377650.769549055	0.07052360842320396
1403289.084785873	0.07118580056829878
1429404.533431761	0.07186031622188979
1456005.9950206485	0.072547384726567
1483102.514336103	0.07324723969302505
1510703.3044866556	0.07396011907949346
1538817.7500383465	0.07468626527264469
1567455.410205595	0.07542592517000853
1596626.022101425	0.07614640768546002
1626339.5040481905	0.07683042683094554
1656605.9589499151	0.07752717568911857
1687435.6777273756	0.07823689116209809
1718839.1428171454	0.0789598145607921
1750827.0317357269	0.07969619168694561
1783410.220710006	0.08044627291671565
1816599.7883753285	0.08121031328580268
1850407.019542302	0.08198857257616438
1884843.4090337954	0.08278131540434513
1919920.6655932867	0.08358881131144841
1955650.715865947	0.08441133485478293
1992045.7084538713	0.08524916570121639
2029118.0180466783	0.08601785787544378
2066880.2496290822	0.08679265552166707
2105345.242766708	0.08758187228392311
2144526.0759716653	0.0883857765044145
2184436.0711494284	0.08920464151923854
2225088.7981283693	0.09003874575132313
2266498.079273693	0.09088837280509464
2308677.994187172	0.09175381156290605
2351642.884494346	0.09263535628325971
2395407.358720879	0.09353330670085942
2439986.29725955	0.09444796812852227
2485394.857429798	0.09537965156098896
2531648.478631358	0.09628458941260871
2578762.8875937983	0.09714617220494234
2626754.1037238385	0.09802378919964494
2675638.4445520453	0.09891773879595062
2725432.531281028	0.09982832494635441
2776153.2944368036	0.10075585725995902
2827817.979625338	0.10170065110774475
2880444.1533962977	0.10266302772980032
2934049.709215787	0.1036433143445463
2988652.873550383	0.10464184425999443
3044272.2120643063	0.10565895698707495
3100926.6359319235	0.106694998355074
3158635.408267819	0.1077503206292204
3217418.1506763715	0.10871564553062125
3277294.849923382	0.1096915585458584
3338285.8647317644	0.11068563346836668
3400411.9327037027	0.1116982082943304
3463694.1773717343	0.11272962731010121
3528154.1153808828	0.11378024120925748
3593813.6638046256	0.11485040721184528
3660695.147596906	0.11594048918583652
3728821.30718283	0.11705085777084745
3798215.306190736	0.11818189050416152
3868900.7393279755	0.11933397194909444
3940901.6404034477	0.12050749382575109
4014242.490499326	0.12164406973042752
4088948.226294856	0.12272928306879254
4165044.248545185	0.12383469241204036
4242556.430717777	0.12496067361125787
4321511.127789762	0.12610760951218525
4401935.1852088785	0.12727589008538698
4483855.948021181	0.1284659125588457
4567301.270168747	0.12967808155302518
4652299.523960189	0.130912809218444
4738879.609717651	0.13217051537581256
4827070.965603188	0.1334516276587761
4916903.577628021	0.1347565816593142
5008407.989848212	0.13608582107584838
5101615.314749833	0.13729804371317317
5196557.243827657	0.13852725204380978
5293266.058360566	0.13977933615063687
5391774.640387494	0.14105472175574127
5492116.483887789	0.14235384250397146
5594325.706169377	0.14367714011037924
5698437.0594691355	0.14502506451040928
5804485.942768984	0.14639807401288138
5912508.413831869	0.14779663545582
6022541.201461928	0.14922122436518556
6134621.717992506	0.15067232511655662
6248788.072006888	0.1521504310998241
6365079.081295578	0.1535779019979214
6483534.286054714	0.15494476990757644
6604193.962330305	0.1563370754616112
6727099.135712336	0.15775529205891556
6852291.595284057	0.15919990190841377
6979813.907830667	0.1606713961930203
7109709.432312423	0.16217027523664657
7242022.334607315	0.1636970486743183
7376797.60252773	0.16525223562545452
7514081.061116962	0.16683636487037573
7653919.388230155	0.16844997503009423
7796360.130405221	0.1700936147494501
7941451.71902934	0.17176784288365865
8089243.486805938	0.1732900803707775
8239785.684528512	0.1748383071793219
8393129.498166373	0.17641534675221343
8549327.066268368	0.17802173529989884
8708431.497690724	0.17965801901179368
8870496.889654402	0.18132475424199007
9035578.34613892	0.18302250769842546
9203731.99661823	0.18475185663556817
9375015.01514529	0.18651338905069
9549485.639791967	0.18830770388379245
9727203.192450536	0.19013541122125238
9908228.099003786	0.19199713250325773
10092621.909870483	0.19378991733346096
10280447.320933098	0.19551152338351463
10471768.194855202	0.19726516881510134
10666649.582795387	0.19905144988656306
10865157.746525371	0.20087097395271114
11067360.180959744	0.20272435967133334
11273325.63710487	0.20461223721354352
11483124.14543511	0.20653524847804788
11696827.039703846	0.20849404730939658
11914506.981197748	0.21048929972029792
12136237.983442418	0.21252168411807054
12362095.437367693	0.21459189153530783
