# Frequency (Hz)	Real Part (Ohm/m)
1000.0	12210520.230664482
1018.6101701559753	12260355.862930069
1037.566678745186	12311118.94479195
1056.875971184804	12362826.736244919
1076.5446128423157	12415496.818495221
1096.5792912678098	12469147.09993833
1116.9868184678226	12523795.822248008
1137.7741332214914	12579461.566578679
1158.9483034398106	12636163.2598832
1180.5165285688054	12693920.181348253
1202.4861420374123	12752751.968949456
1224.8646137509306	12812678.626128495
1247.6595526308697	12873720.52859452
1270.8787092020582	12926749.955445554
1294.529978227916	12971983.464568218
1318.6214013947485	13018058.776992405
1343.1611700460153	13064991.558820792
1368.1576279674719	13112797.767704902
1393.619274224142	13161493.658270858
1419.5547660501015	13211095.787646143
1445.9729217920194	13261621.021089194
1472.882723907502	13313086.5377238
1500.2933220192183	13365509.836380137
1528.2140360258693	13418908.741544606
1556.654359271062	13473301.409420332
1585.6239617711371	13528273.532231675
1615.132693503091	13567232.913256524
1645.1905877536624	13606917.33499142
1675.807864530767	13647340.290567338
1706.9949340384078	13688515.524224736
1738.7624002162504	13730457.035986708
1771.1210643450886	13773179.086419173
1804.0819287193826	13816696.201479593
1837.6562003881704	13861023.177455986
1871.8552949655793	13906175.085997803
1906.690840512252	13952167.279240448
1942.1746814890264	13999015.395025186
1978.3188827841643	14046735.362216165
2015.1357338155585	14086476.529021353
2052.6377527092523	14119256.992469126
2090.8376905557498	14152647.505919458
2129.748535745521	14186659.4225067
2169.3835183851843	14221304.306648951
2209.756114795903	14256593.937980132
2250.880052095462	14292540.315355124
2292.7693128656488	14329155.660929555
2335.438139906479	14366452.42431545
2378.9010410788933	14404443.28681422
2423.1727942376006	14443141.165728465
2468.2684522556924	14482559.21875398
2514.2033481427966	14521954.697129507
2560.9931002584594	14547583.213236934
2608.6536176225477	14573688.680389958
2657.2011053245064	14600279.974728711
2706.652070033241	14627366.137579769
2757.0233256095826	14654956.37853036
2808.3319988231724	14683060.078559687
2860.5955351757416	14711686.79322857
2913.831704832789	14740846.255928455
2968.0586086656026	14770548.381190833
3023.2946844057765	14800803.268058341
3079.5587129142264	14831621.2035185
3136.8698245668766	14863012.666001434
3195.2475057592133	14887371.61046201
3254.711605531848	14906204.905029207
3315.282342319423	14925388.690412898
3376.9803108250912	14944929.489306815
3439.8264890229243	14964833.945793128
3503.8422452906757	14985108.82760152
3569.0493456752292	15005761.02841025
3635.4699612933177	15026797.570190134
3703.126675869927	15048225.605592031
3772.0424934169973	15070052.420378868
3842.240846055061	15092285.435902847
3913.745601980384	15114932.211628811
3986.581073580439	15137132.629014889
4060.7720257003657	15148943.829094926
4136.343684063274	15160974.837618195
4213.321743847289	15173229.745257232
4291.732378422157	15185712.718812676
4371.602248248501	15198428.002630042
4452.958509942655	15211379.92004283
4535.828825510186	15224572.874842513
4620.241371751313	15238011.352775883
4706.224849841281	15251699.923070228
4793.808495089106	15265643.239986945
4883.02208687788	15279846.044404017
4973.895958790063	15294313.165427983
5066.461008921268	15303442.518019497
5160.7487103859075	15308768.48230263
5256.791122018419	15314193.563687317
5354.620899273607	15319719.60675968
5454.271305329836	15325348.49043391
5555.7762223988775	15331082.128591105
5659.170163246242	15336922.470730022
5764.488282925873	15342871.50262991
5871.766390733255	15348931.247025717
5981.040962380945	15355103.764295835
6092.349152400711	15361391.15316264
6205.7288067765	15367795.55140609
6321.218475812449	15373582.185039224
6438.8574272404185	15372782.44007647
6558.685659571435	15371967.81172388
6680.743915695614	15371138.022999033
6805.073696735206	15370292.791764824
6931.717276155407	15369431.830633525
7060.717714137772	15368554.846869074
7192.118872221193	15367661.542287543
7325.96542821523	15366751.613155749
7462.302891391108	15365824.750087984
7601.17761795533	15364880.637940815
7742.636826811269	15363918.955705939
7886.728615614156	15362939.376401039
8033.501977124735	15358694.654862447
8183.00681586739	15352297.749796016
8335.293965098195	15345781.797237828
8490.415204088747	15339144.581693806
8648.423275731726	15332383.846439147
8809.37190447399	15325497.292751022
8973.31581458352	15318482.579126967
9140.310748756232	15311337.320488775
9310.413487069076	15304059.087371523
9483.681866285926	15296645.405097514
9660.174799522645	15289093.75293491
9839.952296278227	15281401.5632406
10023.075482838643	15273153.610694133
10209.606623060476	15261837.110422108
10399.609139541202	15250310.008154446
10593.1476351837	15238568.384552183
10790.287915161836	15226608.24733677
10991.097009294961	15214425.52993269
11195.643194838794	15202016.090084754
11403.99601970033	15189375.708449716
11616.22632608502	15176500.087161608
11832.40627458378	15163384.848370465
12052.609368708414	15150025.532753784
12276.910479883603	15136417.598000308
12505.385872903913	15122556.417265598
12738.113231864783	15107478.556545136
12975.171686575868	15091569.892158892
13216.641839466038	15075365.164821466
13462.60579298911	15058858.864750957
13713.147177539455	15042045.379627494
13968.351179887397	15024918.992684962
14228.30457214352	15007473.880767278
14493.09574126215	14989704.112348417
14762.81471909391	14971603.64551564
15037.553212997384	14953166.325915208
15317.404637020798	14934385.884659793
15602.46414366368	14915255.93619701
15892.828656229764	14895786.210017135
16188.596901781993	14876046.993807128
16489.86944471065	14855940.427424714
16796.74872092653	14835459.674420666
17109.339072690134	14814597.771118289
17427.746784089173	14793347.62424568
17752.08011717636	14771702.008523932
18082.44934877952	14749653.56421047
18418.96680799711	14727194.794596663
18761.746914391195	14704318.063458843
19110.90621689136	14681015.592461945
19466.56343342263	14657279.45851473
19828.83949127071	14633101.591075916
20197.857568198782	14609481.849261595
20573.743134329114	14585940.844045904
20956.623994804308	14561961.7367175
21346.630333242454	14537536.374121524
21743.8947560008	14512656.451371523
22148.55233726359	14487313.509025672
22560.74066496859	14461498.930210512
22980.599887588487	14435203.937691102
23408.272761782944	14408419.59088665
23843.904700937208	14381136.782830654
24287.643824604504	14353346.2370744
24739.64100886812	14325038.504532898
25200.049937640895	14296684.184222858
25669.027154919517	14270087.087416094
26146.732118010917	14242995.01411211
26633.327251749808	14215398.752714053
27128.978003724646	14187288.920195714
27633.852900531667	14158655.95891115
28148.123605075813	14129490.13334501
28671.964974937695	14099781.526802348
29205.55512182745	14069520.038036827
29749.075472144435	14038695.377816208
30302.71082866393	14007297.065423891
30866.649433372742	13975314.425095327
31441.08303147265	13942736.58238822
32026.206936576502	13912199.801363017
32622.220097116733	13882309.201476311
33229.325163989684	13851862.332439654
33847.72855945983	13820848.8419895
34477.640547344636	13789258.18520494
35119.275304507275	13757079.620922284
35772.850993678774	13724302.208082946
36438.58983763541	13690914.802013401
37116.71819475767	13656906.050635833
37807.466635993485	13622264.390608337
38511.070023255685	13586978.043393243
39227.76758927723	13551035.011252292
39957.803018952654	13515387.591818074
40701.42453219439	13482970.611247396
41458.88496832911	13449950.34515236
42230.441872066716	13416315.566286692
43016.35758106799	13382054.838463178
43816.89931514194	13347156.512665205
44632.33926710397	13311608.72308597
45462.95469532399	13275399.383093996
46309.02801799736	13238516.181123538
47170.84690917023	13200946.57648851
48048.704396551344	13162677.79511853
48942.89896114532	13123696.825215595
49853.73463873894	13083990.412829923
50781.5211232767	13047661.987236626
51726.57387216024	13012334.077530485
52689.21421350677	12976348.709413458
53669.76945540476	12939693.647472644
54668.57299720181	12902356.428592037
55685.96444286408	12864324.357714914
56722.28971644549	12825584.503527375
57777.90117970507	12786123.69406159
58853.1577519145	12745928.512217164
59948.42503189408	12704985.291199157
61064.07542232036	12663280.109871272
62200.48825634718	12620798.788022483
63358.04992658254	12579022.759586234
64537.15401646702	12541669.503396457
65738.20143409586	12503621.09675311
66961.60054853215	12464864.602787964
68207.76732865692	12425386.843875479
69477.1254846024	12385174.397152254
70770.10661181889	12344213.589953125
72087.15033782135	12302490.495162293
73428.70447166759	12259990.92647797
74795.22515621828	12216700.433588868
76187.17702322999	12172604.297260975
77605.0333513357	12127687.524332797
79049.2762269642	12081934.842617568
80520.39670825469	12040908.02877083
82018.8949920221	12001121.224956412
83545.28058382872	11960593.981953051
85100.07247122246	11919312.520061446
86683.79930019773	11877262.80313975
88296.99955494082	11834430.53383113
89940.22174092053	11790801.148702508
91614.0245713852	11746359.813292846
93318.9771573324	11701091.41706925
95055.65920101192	11654980.568289243
96824.66119303115	11608011.588767407
98626.5846131283	11560168.508544609
100462.04213468132	11513532.318378031
102331.65783302448	11472378.315126818
104236.06739764012	11430458.4288725
106175.9183482999	11387758.406402074
108151.87025522892	11344263.729247801
110164.59496336569	11299959.608750813
112214.77682079801	11254830.981032763
114303.11291144785	11208862.50187398
116430.31329208757	11162038.541496236
118597.10123376705	11114343.179248484
120804.21346773289	11065760.19819365
123052.40043592616	11016273.079594707
125342.42654613995	10965864.997298107
127675.07043192645	10921580.53903277
130051.12521734099	10878691.849015616
132471.39878661174	10835004.993179485
134936.71405883064	10790505.117522663
137447.90926775365	10745177.091607945
140005.8382468096	10699005.503418121
142611.37071941295	10651974.654115709
145265.39259467812	10604068.5527052
147968.80626863963	10555270.910595939
150722.53093107554	10505565.136063807
153527.5028780421	10454934.328609904
156384.67583022476	10403361.273214139
159295.0212572123	10353576.465538347
162259.5287078087	10310177.10960017
165279.2061464897	10265970.084263315
168355.08029612005	10220940.358662866
171488.19698705408	10175072.622206906
174679.62151272455	10128351.279370831
177930.43899185772	10080760.444394665
181241.75473742394	10032283.93588172
184614.69463245454	9982905.271296795
188050.40551285836	9932607.661361858
191550.0555573528	9881374.004347596
195114.83468466165	9829186.880258588
198745.9549580986	9776028.544910328
202444.65099768018	9730332.914702186
206212.18039991445	9686088.680605693
210049.8241653915	9641021.053784247
213958.88713434213	9595114.71075913
217940.6984302958	9548354.042879067
221996.61191199525	9500723.151013164
226128.00663372793	9452205.840144943
230336.2873142131	9402785.613865959
234622.88481422624	9352445.66876678
238989.25662310526	9301168.888723655
243436.8873543108	9248937.839078886
247967.289250216	9195734.760712793
252582.00269627848	9144920.03474003
257282.59674479323	9101115.795063885
262070.66964838552	9056496.351033805
266947.8494034318	9011046.53155807
271915.7943036019	8964750.883208321
276976.1935036891	8917593.664965315
282130.76759394706	8869558.842866717
287381.2691851069	8820630.084555447
292729.4835042813	8770790.753726497
298177.22900196735	8720023.904470349
303726.3579703311	8668312.275511267
309378.75717301364	8615638.284338215
315136.34848664823	8561984.021226628
321001.08955431683	8516884.856787717
326974.97445117676	8473171.46971953
333060.03436245886	8428644.569079913
339258.33827409917	8383289.015242878
345571.9936762143	8337089.386831409
352003.1472796675	8290029.975474073
358553.9857459817	8242094.780463923
365226.7364308175	8193267.503318184
372023.6681413066	8143531.542236505
378947.09190746717	8092869.986456223
385999.36176797637	8041265.610502511
393182.87557057705	7988700.8683315
400500.07578736113	7939056.231922412
407953.45034524484	7896659.296841245
415545.53347188793	7853473.34758412
423278.90655735444	7809483.700462983
431156.19903182285	7764675.398523808
439180.0892596086	7719033.206461152
447353.3054498463	7672541.605437919
455678.6265841068	7625184.787808812
464158.8833612772	7576946.651745595
472796.9591600391	7527810.79576222
481595.79101923504	7477760.513138244
490558.37063650455	7426778.786238279
499687.7453854889	7374848.280725856
508987.0193519675	7332154.869433866
518459.3543892913	7290665.03452271
528107.971193433	7248403.066724119
537936.1503980698	7205354.596513668
547947.2336900292	7161504.986947644
558144.6249454955	7116839.328686332
568531.7913873753	7071342.434924638
579112.2647641759	7024998.836228475
589889.6425508494	6977792.775274935
600867.5891719692	6929708.201494655
612049.837247669	6880728.765614453
623440.1888627863	6830837.814098369
635042.5168595961	6784254.628538112
646860.7661546321	6744744.735062931
658898.9550799957	6704499.555747325
671161.1767496272	6663505.406796712
683651.6004510238	6621748.3497587135
696374.4730628222	6579214.186784034
709334.1204987989	6535888.455798952
722534.9491787221	6491756.425588099
735981.4475265755	6446803.090785706
749678.1874966878	6401013.166773552
763629.8261282243	6354371.084484105
777841.1071286482	6306860.985106827
792316.8624866261	6258466.714696001
807062.0141149492	6219513.19778069
822081.575524054	6181498.628001676
837380.6535266489	6142776.600610667
852964.4499741016	6103333.94970113
868838.2635251193	6063157.264346757
885007.4914473438	6022232.884041641
901477.6314524917	5980546.894055523
918254.2835656281	5938085.120702637
935343.1520292377	5894833.126522533
952750.0472427299	5850776.205371145
970480.8877380306	5805899.377420588
988541.7021919573	5760187.384065812
1006938.6314760271	5717988.824569814
1025677.9307444209	5682345.907614574
1044765.9715608053	5646039.669909938
1064209.2440647245	5609057.766943899
1084014.359178331	5571387.6244709715
1104188.0508541602	5533016.434236822
1124737.1783647507	5493931.149623327
1145668.7286348727	5454118.481212576
1166989.8186171474	5413564.892268342
1188707.6977119034	5372256.594133422
1210829.7502320393	5330179.541541355
1233363.4979137746	5287319.427840889
1256316.6024741214	5243661.680131548
1279696.8682159416	5209207.089870431
1303512.2446815087	5175392.625531251
1327770.829355429	5140948.868256984
1352480.8704178738	5105864.106799031
1377650.769549055	5070126.411960459
1403289.084785873	5033723.632539965
1429404.533431761	4996643.391200307
1456005.9950206485	4958873.08025989
1483102.514336103	4920399.857406029
1510703.3044866556	4881210.641328404
1538817.7500383465	4841292.1072713
1567455.410205595	4800630.682503015
1596626.022101425	4763510.0427026
1626339.5040481905	4732204.55554482
1656605.9589499151	4700316.467944213
1687435.6777273756	4667834.937607413
1718839.1428171454	4634748.920464121
1750827.0317357269	4601047.166912003
1783410.220710006	4566718.217991734
1816599.7883753285	4531750.401490776
1850407.019542302	4496131.8279747525
1884843.4090337954	4459850.386744888
1919920.6655932867	4422893.741720223
1955650.715865947	4385249.327243265
1992045.7084538713	4346904.343807459
2029118.0180466783	4317188.645642906
2066880.2496290822	4287824.112868509
2105345.242766708	4257913.101142628
2144526.0759716653	4227445.440398997
2184436.0711494284	4196410.771304665
2225088.7981283693	4164798.5417377558
2266498.079273693	4132598.003199597
2308677.994187172	4099798.2071601273
2351642.884494346	4066388.001335287
2395407.358720879	4032356.025895093
2439986.29725955	3997690.7096012174
2485394.857429798	3962380.2658726024
2531648.478631358	3930491.6343129235
2578762.8875937983	3903579.248438105
2626754.1037238385	3876166.0184828476
2675638.4445520453	3848242.6236536
2725432.531281028	3819799.5696952487
2776153.2944368036	3790827.185662973
2827817.979625338	3761315.620634038
2880444.1533962977	3731254.84035834
2934049.709215787	3700634.623846692
2988652.873550383	3669444.559895551
3044272.2120643063	3637674.0435470995
3100926.6359319235	3605312.2724834667
3158635.408267819	3572348.243353784
3217418.1506763715	3547228.36953295
3277294.849923382	3522210.0673443596
3338285.8647317644	3496726.1702950224
3400411.9327037027	3470768.0135853644
3463694.1773717343	3444326.7711624005
3528154.1153808828	3417393.4527188125
3593813.6638046256	3389958.900636122
3660695.147596906	3362013.7868710184
3728821.30718283	3333548.609783724
3798215.306190736	3304553.690907309
3868900.7393279755	3275019.171656947
3940901.6404034477	3244935.0099778627
4014242.490499326	3218050.393953429
4088948.226294856	3195302.8597007464
4165044.248545185	3172131.989964987
4242556.430717777	3148529.9064007862
4321511.127789762	3124488.5840454204
4401935.1852088785	3099999.8485902427
4483855.948021181	3075055.373601346
4567301.270168747	3049646.677688449
4652299.523960189	3023765.1216211733
4738879.609717651	2997401.9053915855
4827070.965603188	2970548.0652221018
4916903.577628021	2943194.470517729
5008407.989848212	2915331.8207615246
5101615.314749833	2894428.443745794
5196557.243827657	2873430.089187507
5293266.058360566	2852040.951677893
5391774.640387494	2830253.758679739
5492116.483887789	2808061.1023126654
5594325.706169377	2785455.436834389
5698437.0594691355	2762429.0760750724
5804485.942768984	2738974.1908239494
5912508.413831869	2715082.8061673203
6022541.201461928	2690746.7987769633
6134621.717992506	2665957.8941481574
6248788.072006888	2640707.66378623
6365079.081295578	2618372.866438547
6483534.286054714	2599398.7691737446
6604193.962330305	2580071.560730283
6727099.135712336	2560384.6696490515
6852291.595284057	2540331.4021749552
6979813.907830667	2519904.939980981
7109709.432312423	2499098.3378498973
7242022.334607315	2477904.5213127807
7376797.60252773	2456316.2842436577
7514081.061116962	2434326.286409309
7653919.388230155	2411927.0509735323
7796360.130405221	2389110.961954936
7941451.71902934	2365870.261637406
8089243.486805938	2348688.0278693796
8239785.684528512	2331268.9541127984
8393129.498166373	2313525.708429647
8549327.066268368	2295452.2579252166
8708431.497690724	2277042.457431589
8870496.889654402	2258290.0474182395
9035578.34613892	2239188.6518637068
9203731.99661823	2219731.776087686
9375015.01514529	2199912.8045427706
9549485.639791967	2179724.998565089
9727203.192450536	2159161.4940830874
9908228.099003786	2138215.2992836717
10092621.909870483	2119872.328970144
10280447.320933098	2104208.7516710176
10471768.194855202	2088253.6725331037
10666649.582795387	2072001.666657581
10865157.746525371	2055447.208187339
11067360.180959744	2038584.6684281235
11273325.63710487	2021408.3139347294
11483124.14543511	2003912.3045615547
11696827.039703846	1986090.6914768934
11914506.981197748	1967937.4151402726
12136237.983442418	1949446.3032421372
12362095.437367693	1930611.0686052062
12592156.13694151	1911493.2465666712
12826498.3052806	1897436.6138200748
13065201.621247198	1883118.3847462435
13308347.24654076	1868533.690993015
13556017.853293689	1853677.5736073677
13808297.652180923	1838544.9813493162
14065272.421052363	1823130.7689744416
14327029.534098294	1807429.6954844499
14593657.991557576	1791436.4223451759
14865248.449978571	1775145.5116714318
15141893.25304352	1758551.4243780528
15423686.462966273	1741648.5182965612
15710723.892474487	1724431.0462567622
16003103.137387017	1709501.084009537
16300923.609797413	1696674.6803909556
16604286.571875297	1683609.575218543
16913295.17029647	1670301.3262157661
17228054.471313924	1656745.4084345691
17548671.49648152	1642937.2127168428
17875255.259042352	1628872.0441272636
18207916.800994623	1614545.12035696
18546769.230846975	1599951.5700974795
18891927.762076646	1585086.4313844896
19243509.75230332	1569944.6499106574
19601634.743191857	1554521.0773071349
19966424.501097932	1538978.7664285
20338003.0584698	1527506.884407917
20716496.75602067	1515821.5087109213
21102034.285685964	1503918.666183867
