# Frequency (Hz)	Imaginary Part (Ohm/m)
1000.0	45129004.12204254
1018.6101701559753	45120476.595732026
1037.566678745186	45111790.370705865
1056.875971184804	45102942.49355396
1076.5446128423157	45093929.955902725
1096.5792912678098	45084749.69339228
1116.9868184678226	45075398.58463442
1137.7741332214914	45065873.45015145
1158.9483034398106	45056171.05129498
1180.5165285688054	45046288.08914488
1202.4861420374123	45036221.20338751
1224.8646137509306	45025966.971173264
1247.6595526308697	45015521.905952685
1270.8787092020582	45005001.174905956
1294.529978227916	44994398.624607325
1318.6214013947485	44983598.759043545
1343.1611700460153	44972597.90614396
1368.1576279674719	44961392.32550006
1393.619274224142	44949978.207093686
1419.5547660501015	44938351.67000158
1445.9729217920194	44926508.76107587
1472.882723907502	44914445.45359991
1500.2933220192183	44902157.645919174
1528.2140360258693	44889641.16004666
1556.654359271062	44876891.740242295
1585.6239617711371	44863913.35288563
1615.132693503091	44851020.18891456
1645.1905877536624	44837887.080968134
1675.807864530767	44824509.56364815
1706.9949340384078	44810883.088454574
1738.7624002162504	44797003.02223902
1771.1210643450886	44782864.64562941
1804.0819287193826	44768463.151425384
1837.6562003881704	44753793.642963715
1871.8552949655793	44738851.132453464
1906.690840512252	44723630.539280064
1942.1746814890264	44708126.688277826
1978.3188827841643	44692334.307970375
2015.1357338155585	44676503.71240217
2052.6377527092523	44660600.550984785
2090.8376905557498	44644401.42902741
2129.748535745521	44627900.83865403
2169.3835183851843	44611093.16948611
2209.756114795903	44593972.70673507
2250.880052095462	44576533.62925908
2292.7693128656488	44558770.007583894
2335.438139906479	44540675.801886745
2378.9010410788933	44522244.85994274
2423.1727942376006	44503470.91503303
2468.2684522556924	44484347.58381403
2514.2033481427966	44464901.90305231
2560.9931002584594	44445737.48405153
2608.6536176225477	44426216.41195222
2657.2011053245064	44406332.049379505
2706.652070033241	44386077.635435864
2757.0233256095826	44365446.28340233
2808.3319988231724	44344430.9783969
2860.5955351757416	44323024.574989446
2913.831704832789	44301219.79477214
2968.0586086656026	44279009.22388478
3023.2946844057765	44256385.31049395
3079.5587129142264	44233340.362225324
3136.8698245668766	44209866.54354818
3195.2475057592133	44186487.96254636
3254.711605531848	44163091.98190107
3315.282342319423	44139260.59807501
3376.9803108250912	44114985.70814089
3439.8264890229243	44090259.058374576
3503.8422452906757	44065072.24144872
3569.0493456752292	44039416.6935742
3635.4699612933177	44013283.691588275
3703.126675869927	43986664.349988714
3772.0424934169973	43959549.617912546
3842.240846055061	43931930.276058696
3913.745601980384	43903796.93355336
3986.581073580439	43875238.19425362
4060.7720257003657	43847369.959131576
4136.343684063274	43818983.091411956
4213.321743847289	43790067.93925388
4291.732378422157	43760614.671194054
4371.602248248501	43730613.27280399
4452.958509942655	43700053.54328497
4535.828825510186	43668925.09199968
4620.241371751313	43637217.33493928
4706.224849841281	43604919.49112472
4793.808495089106	43572020.57894109
4883.02208687788	43538509.412403785
4973.895958790063	43504374.597355105
5066.461008921268	43470667.11728353
5160.7487103859075	43437085.31742169
5256.791122018419	43402878.554550275
5354.620899273607	43368035.19800133
5454.271305329836	43332543.400658205
5555.7762223988775	43296391.09492739
5659.170163246242	43259565.98863539
5764.488282925873	43222055.56084929
5871.766390733255	43183847.05761946
5981.040962380945	43144927.487643115
6092.349152400711	43105283.617847115
6205.7288067765	43064901.96888857
6321.218475812449	43024013.5799097
6438.8574272404185	42984587.60317764
6558.685659571435	42944427.902310036
6680.743915695614	42903520.822575875
6805.073696735206	42861852.45512727
6931.717276155407	42819408.63227033
7060.717714137772	42776174.92264796
7192.118872221193	42732136.62633303
7325.96542821523	42687278.76983031
7462.302891391108	42641586.10098524
7601.17761795533	42595043.08379807
7742.636826811269	42547633.89314149
7886.728615614156	42499342.409379825
8033.501977124735	42452174.35781213
8183.00681586739	42405419.66221271
8335.293965098195	42357794.853772596
8490.415204088747	42309283.73954376
8648.423275731726	42259869.825224675
8809.37190447399	42209536.309552036
8973.31581458352	42158266.07858819
9140.310748756232	42106041.69990216
9310.413487069076	42052845.416642494
9483.681866285926	41998659.141499706
9660.174799522645	41943464.45055639
9839.952296278227	41887242.57702291
10023.075482838643	41830518.49130282
10209.606623060476	41776582.68268938
10399.609139541202	41721643.11950015
10593.1476351837	41665681.121691674
10790.287915161836	41608677.661581725
10991.097009294961	41550613.35737964
11195.643194838794	41491468.46659636
11403.99601970033	41431222.87933175
11616.22632608502	41369856.11143701
11832.40627458378	41307347.297549814
12052.609368708414	41243675.18399994
12276.910479883603	41178818.1215827
12505.385872903913	41112754.058198065
12738.113231864783	41049099.555094205
12975.171686575868	40986348.83659355
13216.641839466038	40922430.3165442
13462.60579298911	40857322.26196059
13713.147177539455	40791002.53540267
13968.351179887397	40723448.587448806
14228.30457214352	40654637.44902881
14493.09574126215	40584545.7236142
14762.81471909391	40513149.57926308
15037.553212997384	40440424.740517125
15317.404637020798	40366346.48014753
15602.46414366368	40290889.610747606
15892.828656229764	40215123.97282622
16188.596901781993	40144213.69383919
16489.86944471065	40071983.76249442
16796.74872092653	39998409.61983696
17109.339072690134	39923466.24986558
17427.746784089173	39847128.17102696
17752.08011717636	39769369.42755176
18082.44934877952	39690163.580629386
18418.96680799711	39609483.69941844
18761.746914391195	39527302.35189
19110.90621689136	39443591.595500395
19466.56343342263	39358322.96769049
19828.83949127071	39271467.47620808
20197.857568198782	39189142.01691686
20573.743134329114	39108444.65112427
20956.623994804308	39026245.493623145
21346.630333242454	38942516.59581423
21743.8947560008	38857229.48897012
22148.55233726359	38770355.17455554
22560.74066496859	38681864.11436752
22980.599887588487	38591726.22049212
23408.272761782944	38499910.845074184
23843.904700937208	38406386.76989679
24287.643824604504	38311122.19576667
24739.64100886812	38214084.73170216
25200.049937640895	38117250.138822764
25669.027154919517	38028171.079595804
26146.732118010917	37937434.243919306
26633.327251749808	37845008.780291446
27128.978003724646	37750863.26305873
27633.852900531667	37654965.681730896
28148.123605075813	37557283.43009699
28671.964974937695	37457783.29513897
29205.55512182745	37356431.44573884
29749.075472144435	37253193.42117574
30302.71082866393	37148034.11940897
30866.649433372742	37040917.785142824
31441.08303147265	36931807.9976695
32026.206936576502	36830347.479617275
32622.220097116733	36731439.411992736
33229.325163989684	36630690.64839992
33847.72855945983	36528066.93317362
34477.640547344636	36423533.37314493
35119.275304507275	36317054.4257771
35772.850993678774	36208593.88708071
36438.58983763541	36098114.87930399
37116.71819475767	35985579.838393874
37807.466635993485	35870950.501223914
38511.070023255685	35754187.89258435
39227.76758927723	35635252.31193014
39957.803018952654	35517463.15731796
40701.42453219439	35411045.87451193
41458.88496832911	35302648.14796536
42230.441872066716	35192233.121283226
43016.35758106799	35079763.25216676
43816.89931514194	34965200.29964863
44632.33926710397	34848505.31109056
45462.95469532399	34729638.608939074
46309.02801799736	34608559.777234666
47170.84690917023	34485227.647869945
48048.704396551344	34359600.28659206
48942.89896114532	34231634.978744544
49853.73463873894	34101288.214743935
50781.5211232767	33982660.26438666
51726.57387216024	33867584.923555754
52689.21421350677	33750368.01105124
53669.76945540476	33630969.67185986
54668.57299720181	33509349.30925978
55685.96444286408	33385465.571017288
56722.28971644549	33259276.33532653
57777.90117970507	33130738.69648773
58853.1577519145	32999808.95031869
59948.42503189408	32866442.579294965
61064.07542232036	32730594.237413403
62200.48825634718	32592217.734774005
63358.04992658254	32456396.901457075
64537.15401646702	32335885.274726015
65738.20143409586	32213130.90611572
66961.60054853215	32088092.057818193
68207.76732865692	31960726.215277728
69477.1254846024	31830990.072735537
70770.10661181889	31698839.518505257
72087.15033782135	31564229.61997455
73428.70447166759	31427114.608327504
74795.22515621828	31287447.862982754
76187.17702322999	31145181.89574202
77605.0333513357	31000268.33464354
79049.2762269642	30852657.9075151
80520.39670825469	30721426.80566824
82018.8949920221	30594624.174024273
83545.28058382872	30465461.723829202
85100.07247122246	30333895.538458243
86683.79930019773	30199880.883990753
88296.99955494082	30063372.194000233
89940.22174092053	29924323.054061197
91614.0245713852	29782686.185967878
93318.9771573324	29638413.431658972
95055.65920101192	29491455.73684352
96824.66119303115	29341763.13432181
98626.5846131283	29189284.726996068
100462.04213468132	29041135.59410723
102331.65783302448	28911929.44922629
104236.06739764012	28780318.75600392
106175.9183482999	28646258.765386336
108151.87025522892	28509703.895532236
110164.59496336569	28370607.716314536
112214.77682079801	28228922.93353355
114303.11291144785	28084601.3728365
116430.31329208757	27937593.963337697
118597.10123376705	27787850.720933918
120804.21346773289	27635320.731309317
123052.40043592616	27479952.132623907
125342.42654613995	27321692.097880073
127675.07043192645	27184415.83240749
130051.12521734099	27052107.106898688
132471.39878661174	26917336.093495063
134936.71405883064	26780056.9685999
137447.90926775365	26640223.05583158
140005.8382468096	26497786.81015306
142611.37071941295	26352699.801706076
145265.39259467812	26204912.69934448
147968.80626863963	26054375.25386108
150722.53093107554	25901036.28090239
153527.5028780421	25744843.643565394
156384.67583022476	25585744.23467043
159295.0212572123	25432871.8601384
162259.5287078087	25301601.654267088
165279.2061464897	25167888.487528086
168355.08029612005	25031686.896004003
171488.19698705408	24892950.569686115
174679.62151272455	24751632.33672865
177930.43899185772	24607684.14740971
181241.75473742394	24461057.057793878
184614.69463245454	24311701.21309086
188050.40551285836	24159565.830704086
191550.0555573528	24004599.182964366
195114.83468466165	23846748.579541717
198745.9549580986	23685960.349530127
202444.65099768018	23549943.65184209
206212.18039991445	23418956.81007852
210049.8241653915	23285532.280901548
213958.88713434213	23149624.698533613
217940.6984302958	23011187.852932308
221996.61191199525	22870174.67407854
226128.00663372793	22726537.215972032
230336.2873142131	22580226.64032941
234622.88481422624	22431193.199978456
238989.25662310526	22279386.221943628
243436.8873543108	22124754.090216737
247967.289250216	21967244.228206795
252582.00269627848	21817669.878815573
257282.59674479323	21690902.77909747
262070.66964838552	21561776.522083428
266947.8494034318	21430247.203454774
271915.7943036019	21296270.10182591
276976.1935036891	21159799.66353875
282130.76759394706	21020789.4871738
287381.2691851069	20879192.307773273
292729.4835042813	20734959.980770525
298177.22900196735	20588043.465620235
303726.3579703311	20438392.80912429
309378.75717301364	20285957.128447
315136.34848664823	20130684.593814448
321001.08955431683	20002536.160493013
326974.97445117676	19878993.203153145
333060.03436245886	19753151.09035562
339258.33827409917	19624967.034426145
345571.9936762143	19494397.451404527
352003.1472796675	19361397.94622571
358553.9857459817	19225923.297624826
365226.7364308175	19087927.442761675
372023.6681413066	18947363.461558696
378947.09190746717	18804183.56074772
385999.36176797637	18658339.05761976
393182.87557057705	18509780.36347225
400500.07578736113	18370397.737410966
407953.45034524484	18253451.07306548
415545.53347188793	18134328.011397336
423278.90655735444	18012988.049282074
431156.19903182285	17889389.9298251
439180.0892596086	17763491.62833409
447353.3054498463	17635250.33802998
455678.6265841068	17504622.45549228
464158.8833612772	17371563.565833464
472796.9591600391	17236028.427597303
481595.79101923504	17097970.95737647
490558.37063650455	16957344.21414352
499687.7453854889	16814100.38329051
508987.0193519675	16698626.51526987
518459.3543892913	16586963.746028963
528107.971193433	16473222.913652407
537936.1503980698	16357365.34503164
547947.2336900292	16239351.64734497
558144.6249454955	16119141.694663644
568531.7913873753	15996694.614308447
579112.2647641759	15871968.77295275
589889.6425508494	15744921.76246658
600867.5891719692	15615510.385497438
612049.837247669	15483690.64078281
623440.1888627863	15349417.708189096
635042.5168595961	15224942.30838857
646860.7661546321	15121198.131382795
658898.9550799957	15015523.257590236
671161.1767496272	14907881.756415214
683651.6004510238	14798237.028587455
696374.4730628222	14686551.79371813
709334.1204987989	14572788.077623975
722534.9491787221	14456907.199415715
735981.4475265755	14338869.758346207
749678.1874966878	14218635.62041359
763629.8261282243	14096163.904715503
777841.1071286482	13971412.969548982
792316.8624866261	13844340.398251882
807062.0141149492	13744102.590690946
822081.575524054	13646697.418193646
837380.6535266489	13547479.518862108
852964.4499741016	13446415.157541491
868838.2635251193	13343469.97125998
885007.4914473438	13238608.957545044
901477.6314524917	13131796.462522145
918254.2835656281	13022996.168792086
935343.1520292377	12912171.083082689
952750.0472427299	12799283.523670679
970480.8877380306	12684295.10756953
988541.7021919573	12567166.737478774
1006938.6314760271	12459844.56737259
1025677.9307444209	12370686.8436714
1044765.9715608053	12279869.879561404
1064209.2440647245	12187362.796296282
1084014.359178331	12093134.14047096
1104188.0508541602	11997151.87332716
1124737.1783647507	11899383.359859861
1145668.7286348727	11799795.357721023
1166989.8186171474	11698354.005916903
1188707.6977119034	11595024.813294854
1210829.7502320393	11489772.646816032
1233363.4979137746	11382561.719609752
1256316.6024741214	11273355.57880557
1279696.8682159416	11188879.192061106
1303512.2446815087	11106254.444740864
1327770.829355429	11022092.036813894
1352480.8704178738	10936363.352154668
1377650.769549055	10849039.242086677
1403289.084785873	10760090.015471611
1429404.533431761	10669485.428613996
1456005.9950206485	10577194.67497805
1483102.514336103	10483186.374713114
1510703.3044866556	10387428.563984163
1538817.7500383465	10289888.684103794
1567455.410205595	10190533.570461858
1596626.022101425	10100506.39655192
1626339.5040481905	10025724.56121767
1656605.9589499151	9949551.023203263
1687435.6777273756	9871959.882685034
1718839.1428171454	9792924.757839166
1750827.0317357269	9712418.775871607
1783410.220710006	9630414.563881077
1816599.7883753285	9546884.239551878
1850407.019542302	9461799.401673736
1884843.4090337954	9375131.120484991
1919920.6655932867	9286849.927836185
1955650.715865947	9196925.807170635
1992045.7084538713	9105328.18331835
2029118.0180466783	9035693.368773894
2066880.2496290822	8967053.110361338
2105345.242766708	8897135.445060167
2144526.0759716653	8825916.60011085
2184436.0711494284	8753372.360338695
2225088.7981283693	8679478.059920555
2266498.079273693	8604208.573998075
2308677.994187172	8527538.310135018
2351642.884494346	8449441.199615581
2395407.358720879	8369890.688580671
2439986.29725955	8288859.728999415
2485394.857429798	8206320.769472451
2531648.478631358	8132318.911394419
2578762.8875937983	8070694.522810735
2626754.1037238385	8007923.293869737
2675638.4445520453	7943983.881677254
2725432.531281028	7878854.546144197
2776153.2944368036	7812513.142594716
2827817.979625338	7744937.114236807
2880444.1533962977	7676103.484492679
2934049.709215787	7605988.849186566
2988652.873550383	7534569.368586982
3044272.2120643063	7461820.759300979
3100926.6359319235	7387718.286017572
3158635.408267819	7312236.753097365
3217418.1506763715	7255733.77763779
3277294.849923382	7199550.726821181
3338285.8647317644	7142322.099868989
3400411.9327037027	7084028.438431434
3463694.1773717343	7024649.9220355
3528154.1153808828	6964166.361345835
3593813.6638046256	6902557.191300095
3660695.147596906	6839801.46411663
3728821.30718283	6775877.842172031
3798215.306190736	6710764.590746043
3868900.7393279755	6644439.570631617
3940901.6404034477	6576880.230607261
4014242.490499326	6516916.271073661
4088948.226294856	6466756.538070881
4165044.248545185	6415663.32390193
4242556.430717777	6363619.256323484
4321511.127789762	6310606.639791794
4401935.1852088785	6256607.449446032
4483855.948021181	6201603.324979661
4567301.270168747	6145575.564397677
4652299.523960189	6088505.11765781
4738879.609717651	6030372.580193238
4827070.965603188	5971158.186314846
4916903.577628021	5910841.802490707
5008407.989848212	5849402.920500392
5101615.314749833	5804048.038043066
5196557.243827657	5758526.499058658
5293266.058360566	5712157.796487984
5391774.640387494	5664926.164472569
5492116.483887789	5616815.543748591
5594325.706169377	5567809.5761866355
5698437.0594691355	5517891.599229694
5804485.942768984	5467044.640227736
5912508.413831869	5415251.410666849
6022541.201461928	5362494.300290896
6134621.717992506	5308755.371113913
6248788.072006888	5254016.3513209475
6365079.081295578	5205899.30023632
6483534.286054714	5165409.958389606
6604193.962330305	5124167.103001613
6727099.135712336	5082156.711057135
6852291.595284057	5039364.498570251
6979813.907830667	4995775.915727631
7109709.432312423	4951376.141941462
7242022.334607315	4906150.080810235
7376797.60252773	4860082.354985877
7514081.061116962	4813157.300945228
7653919.388230155	4765358.963664299
7796360.130405221	4716671.091193411
7941451.71902934	4667077.129131296
8089243.486805938	4630932.508577075
8239785.684528512	4594298.841044556
8393129.498166373	4556983.414725818
8549327.066268368	4518973.541973852
8708431.497690724	4480256.299022356
8870496.889654402	4440818.521591568
9035578.34613892	4400646.800412219
9203731.99661823	4359727.476666259
9375015.01514529	4318046.637342724
9549485.639791967	4275590.110507134
9727203.192450536	4232343.460482903
9908228.099003786	4188291.9829430445
10092621.909870483	4149931.270345271
10280447.320933098	4117427.530940281
10471768.194855202	4084318.89141426
10666649.582795387	4050594.094473026
10865157.746525371	4016241.673322241
11067360.180959744	3981249.947768565
11273325.63710487	3945607.020248288
11483124.14543511	3909300.771782002
11696827.039703846	3872318.8578540334
11914506.981197748	3834648.7042151713
12136237.983442418	3796277.5026072836
12362095.437367693	3757192.206408389
12592156.13694151	3717524.9093383597
12826498.3052806	3688711.131593594
13065201.621247198	3659361.124542162
13308347.24654076	3629464.90886542
13556017.853293689	3599012.319527918
13808297.652180923	3567993.0023211543
14065272.421052363	3536396.410343052
14327029.534098294	3504211.8004118865
14593657.991557576	3471428.229413496
14865248.449978571	3438034.550580508
15141893.25304352	3404019.4097023043
15423686.462966273	3369371.241264477
15710723.892474487	3334078.26451643
16003103.137387017	3303625.742052095
16300923.609797413	3277626.2689675246
16604286.571875297	3251142.9412648845
16913295.17029647	3224166.754327402
17228054.471313924	3196688.5359608536
17548671.49648152	3168698.943274917
17875255.259042352	3140188.459506503
18207916.800994623	3111147.3907839283
18546769.230846975	3081565.862830916
18891927.762076646	3051433.817609224
19243509.75230332	3020741.0098988055
19601634.743191857	2989477.0038143345
19966424.501097932	2957981.0631107637
20338003.0584698	2934962.851481504
20716496.75602067	2911516.2670171373
21102034.285685964	2887633.3376263096
21494746.734379806	2863305.9428556985
21894767.628566206	2838525.8111289544
