Frequency [GHz]	Zx imag [Ohm/m]	Zy imag [Ohm/m]
1.000000000000000166e-10	1.615734960285972245e+07	4.561420389051538706e+07
1.032794731918951654e-10	1.615734842327141203e+07	4.561420220162817091e+07
1.066664958279539403e-10	1.615734720499881729e+07	4.561420045735434443e+07
1.101645949633656381e-10	1.615734594677329995e+07	4.561419865587753057e+07
1.137774133221491146e-10	1.615734464728461392e+07	4.561419679532176256e+07
1.175087130904807540e-10	1.615734330517954379e+07	4.561419487374956161e+07
1.213623798344240958e-10	1.615734191906049848e+07	4.561419288915993273e+07
1.253424265461399975e-10	1.615734048748405278e+07	4.561419083948620409e+07
1.294529978227915867e-10	1.615733900895943865e+07	4.561418872259397805e+07
1.336983741824946476e-10	1.615733748194700852e+07	4.561418653627884388e+07
1.380829765218092491e-10	1.615733590485661291e+07	4.561418427826409042e+07
1.426113707194128486e-10	1.615733427604596131e+07	4.561418194619834423e+07
1.472882723907502473e-10	1.615733259381890111e+07	4.561417953765312582e+07
1.521185517986104510e-10	1.615733085642365552e+07	4.561417705012031645e+07
1.571072389247450498e-10	1.615732906205099821e+07	4.561417448100953549e+07
1.622595287078087593e-10	1.615732720883237198e+07	4.561417182764545083e+07
1.675807864530767868e-10	1.615732529483793676e+07	4.561416908726500720e+07
1.730765534195724819e-10	1.615732331807456724e+07	4.561416625701452792e+07
1.787525525904235329e-10	1.615732127648377232e+07	4.561416333394672722e+07
1.846146946324547531e-10	1.615731916793955490e+07	4.561416031501771510e+07
1.906690840512252406e-10	1.615731699024619535e+07	4.561415719708372653e+07
1.969220255479172543e-10	1.615731474113596603e+07	4.561415397689794004e+07
2.033800305846981002e-10	1.615731241826677136e+07	4.561415065110701323e+07
2.100498241653915480e-10	1.615731001921970211e+07	4.561414721624766290e+07
2.169383518385184289e-10	1.615730754149652645e+07	4.561414366874302924e+07
2.240527869300018610e-10	1.615730498251708411e+07	4.561414000489892811e+07
2.314005380130653023e-10	1.615730233961659670e+07	4.561413622090003639e+07
2.389892566231049743e-10	1.615729961004289798e+07	4.561413231280592829e+07
2.468268452255692806e-10	1.615729679095355980e+07	4.561412827654691041e+07
2.549214654451423314e-10	1.615729387941294536e+07	4.561412410791986436e+07
2.632815465648021228e-10	1.615729087238913402e+07	4.561411980258381367e+07
2.719157943036017723e-10	1.615728776675078273e+07	4.561411535605541617e+07
2.808331998823172083e-10	1.615728455926385708e+07	4.561411076370432228e+07
2.900430493863991314e-10	1.615728124658825621e+07	4.561410602074829489e+07
2.995549334359813486e-10	1.615727782527434826e+07	4.561410112224829942e+07
3.093787571730138678e-10	1.615727429175936431e+07	4.561409606310330331e+07
3.195247505759212065e-10	1.615727064236370660e+07	4.561409083804501593e+07
3.300034791125284578e-10	1.615726687328709662e+07	4.561408544163233787e+07
3.408258547423451742e-10	1.615726298060462810e+07	4.561407986824575067e+07
3.520031472796679687e-10	1.615725896026268229e+07	4.561407411208144575e+07
3.635469961293320139e-10	1.615725480807469971e+07	4.561406816714527458e+07
3.754694224073336536e-10	1.615725051971682720e+07	4.561406202724651247e+07
3.877828414589456106e-10	1.615724609072340466e+07	4.561405568599142134e+07
4.005000757873611052e-10	1.615724151648233458e+07	4.561404913677656651e+07
4.136343684063274911e-10	1.615723679223025031e+07	4.561404237278196961e+07
4.271993966306778827e-10	1.615723191304758750e+07	4.561403538696398586e+07
4.412092863191189219e-10	1.615722687385343947e+07	4.561402817204796523e+07
4.556786265841064474e-10	1.615722166940026730e+07	4.561402072052071244e+07
4.706224849841281415e-10	1.615721629426844977e+07	4.561401302462261915e+07
4.860564232142136024e-10	1.615721074286062270e+07	4.561400507633961737e+07
5.019965133110081441e-10	1.615720500939586759e+07	4.561399686739479750e+07
5.184593543892912175e-10	1.615719908790367097e+07	4.561398838923984021e+07
5.354620899273606527e-10	1.615719297221772559e+07	4.561397963304606080e+07
5.530224256192902378e-10	1.615718665596949868e+07	4.561397058969524503e+07
5.711586478126431938e-10	1.615718013258160464e+07	4.561396124977017939e+07
5.898896425508497150e-10	1.615717339526095614e+07	4.561395160354476422e+07
6.092349152400710261e-10	1.615716643699168041e+07	4.561394164097397029e+07
6.292146109610343618e-10	1.615715925052782893e+07	4.561393135168334842e+07
6.498495354469890483e-10	1.615715182838582247e+07	4.561392072495818883e+07
6.711611767496282870e-10	1.615714416283665970e+07	4.561390974973243475e+07
6.931717276155404727e-10	1.615713624589786679e+07	4.561389841457708925e+07
7.159041085964887260e-10	1.615712806932518817e+07	4.561388670768836141e+07
7.393819919175865964e-10	1.615711962460399978e+07	4.561387461687535793e+07
7.636298261282244400e-10	1.615711090294044465e+07	4.561386212954739481e+07
7.886728615614152294e-10	1.615710189525227062e+07	4.561384923270083964e+07
8.145371766280743462e-10	1.615709259215937927e+07	4.561383591290567070e+07
8.412497049736117954e-10	1.615708298397404887e+07	4.561382215629138798e+07
8.688382635251186617e-10	1.615707306069085747e+07	4.561380794853262603e+07
8.973315814583522479e-10	1.615706281197625212e+07	4.561379327483423054e+07
9.267593301146878953e-10	1.615705222715780139e+07	4.561377811991582066e+07
9.571521538991863169e-10	1.615704129521306604e+07	4.561376246799592674e+07
9.885417021919573871e-10	1.615703000475813262e+07	4.561374630277551711e+07
1.020960662306046580e-09	1.615701856346741691e+07	4.561372961981068552e+07
1.054442793526168950e-09	1.615700687085040100e+07	4.561371239672748744e+07
1.089022962263730067e-09	1.615699479477714561e+07	4.561369460881789774e+07
1.124737178364752061e-09	1.615698232267230563e+07	4.561367623755858094e+07
1.161622632608501755e-09	1.615696944154812954e+07	4.561365726381874084e+07
1.199717735435884489e-09	1.615695613799093850e+07	4.561363766784019023e+07
1.239062156947916503e-09	1.615694239814715646e+07	4.561361742921677232e+07
1.279696868215940940e-09	1.615692820770888217e+07	4.561359652687313408e+07
1.321664183946605026e-09	1.615691355189898796e+07	4.561357493904273212e+07
1.365007806546013663e-09	1.615689841545573622e+07	4.561355264324522018e+07
1.409772871628966933e-09	1.615688278261688724e+07	4.561352961626300961e+07
1.456005995020649598e-09	1.615686663710327819e+07	4.561350583411708474e+07
1.503755321299737753e-09	1.615684996210188046e+07	4.561348127204206586e+07
1.553070573933460069e-09	1.615683274024827965e+07	4.561345590446037054e+07
1.604003107056820079e-09	1.615681495360860974e+07	4.561342970495564491e+07
1.656605958949914401e-09	1.615679658366085775e+07	4.561340264624518156e+07
1.710933907269014249e-09	1.615677761127559468e+07	4.561337470015156269e+07
1.767043526088946692e-09	1.615675801669604331e+07	4.561334583757329732e+07
1.824993244816152494e-09	1.615673777951750904e+07	4.561331602845451236e+07
1.884843409033795523e-09	1.615671687866612710e+07	4.561328524175367504e+07
1.946656343342262358e-09	1.615669529237692989e+07	4.561325344541122764e+07
2.010496416260498236e-09	1.615667299817116559e+07	4.561322060631625354e+07
2.076430107255774870e-09	1.615664997283289768e+07	4.561318669027197361e+07
2.144526075971667793e-09	1.615662619238483533e+07	4.561315166196010262e+07
2.214855233726359314e-09	1.615660163206335343e+07	4.561311548490414023e+07
2.287490817355702788e-09	1.615657626629271172e+07	4.561307812143132836e+07
2.362508465477946229e-09	1.615655006865842268e+07	4.561303953263343871e+07
2.439986297259550245e-09	1.615652301187974401e+07	4.561299967832626402e+07
2.520004993764092080e-09	1.615649506778125837e+07	4.561295851700777560e+07
2.602647881969005809e-09	1.615646620726355165e+07	4.561291600581488013e+07
2.688001021537606561e-09	1.615643640027290769e+07	4.561287210047880560e+07
2.776153294436799262e-09	1.615640561576999538e+07	4.561282675527901202e+07
2.867196497493770032e-09	1.615637382169756293e+07	4.561277992299553752e+07
2.961225437988034610e-09	1.615634098494704627e+07	4.561273155485989153e+07
3.058338032378433485e-09	1.615630707132410258e+07	4.561268160050419718e+07
3.158635408267817403e-09	1.615627204551298358e+07	4.561263000790879875e+07
3.262222009711669644e-09	1.615623587103977986e+07	4.561257672334807366e+07
3.369205705980266915e-09	1.615619851023442484e+07	4.561252169133445621e+07
3.479697903887691433e-09	1.615615992419147305e+07	4.561246485456071049e+07
3.593813663804627762e-09	1.615612007272958942e+07	4.561240615384020656e+07
3.711671819475765297e-09	1.615607891434969567e+07	4.561234552804530412e+07
3.833395101766601886e-09	1.615603640619176440e+07	4.561228291404371709e+07
3.959110266468459240e-09	1.615599250399019197e+07	4.561221824663272500e+07
4.088948226294862618e-09	1.615594716202768870e+07	4.561215145847133547e+07
4.223044187206674123e-09	1.615590033308767900e+07	4.561208248001009226e+07
4.361537789208003199e-09	1.615585196840513684e+07	4.561201123941870779e+07
4.504573251759458750e-09	1.615580201761579514e+07	4.561193766251122206e+07
4.652299523960189308e-09	1.615575042870370857e+07	4.561186167266878486e+07
4.804870439655131104e-09	1.615569714794707857e+07	4.561178319075983763e+07
4.962444877628916452e-09	1.615564211986231990e+07	4.561170213505771756e+07
5.125186927053329472e-09	1.615558528714627400e+07	4.561161842115557939e+07
5.293266058360561204e-09	1.615552659061654285e+07	4.561153196187846363e+07
5.466857299720180771e-09	1.615546596914985031e+07	4.561144266719253361e+07
5.646141419303669251e-09	1.615540335961841233e+07	4.561135044411132485e+07
5.831305113526221869e-09	1.615533869682417251e+07	4.561125519659887999e+07
6.022541201461928965e-09	1.615527191343093291e+07	4.561115682546979934e+07
6.220048825634711276e-09	1.615520293989421427e+07	4.561105522828591615e+07
6.424033659394191079e-09	1.615513170438884944e+07	4.561095029924961925e+07
6.634708121092347870e-09	1.615505813273418322e+07	4.561084192909371108e+07
6.852291595284060743e-09	1.615498214831682667e+07	4.561073000496759266e+07
7.077010661181889919e-09	1.615490367201087251e+07	4.561061441031975299e+07
7.309099328602911004e-09	1.615482262209549919e+07	4.561049502477643639e+07
7.548799281653435948e-09	1.615473891416988336e+07	4.561037172401622683e+07
7.796360130405233414e-09	1.615465246106528677e+07	4.561024437964064628e+07
8.052039670825474778e-09	1.615456317275429890e+07	4.561011285904040188e+07
8.316104153230961616e-09	1.615447095625709184e+07	4.560997702525733411e+07
8.588828559546249041e-09	1.615437571554457769e+07	4.560983673684176058e+07
8.870496889654407999e-09	1.615427735143842921e+07	4.560969184770520777e+07
9.161402457138517586e-09	1.615417576150779240e+07	4.560954220696827024e+07
9.461848194721997291e-09	1.615407083996261097e+07	4.560938765880347043e+07
9.772146969725725887e-09	1.615396247754348442e+07	4.560922804227304459e+07
1.009262190987047331e-08	1.615385120578311384e+07	4.560906325297406316e+07
1.042360673976401127e-08	1.615373792206579074e+07	4.560889321650250256e+07
1.076544612842315905e-08	1.615362092323932983e+07	4.560871760373044759e+07
1.111849604819270880e-08	1.615350008746771887e+07	4.560853623178460449e+07
1.148312414543511117e-08	1.615337528891937248e+07	4.560834891179442406e+07
1.185971012337669343e-08	1.615324639763608761e+07	4.560815544869538397e+07
1.224864613750930795e-08	1.615311327939772047e+07	4.560795564102587104e+07
1.265033720395903769e-08	1.615297594932056591e+07	4.560774929654882103e+07
1.306520162124721228e-08	1.615283500091966242e+07	4.560753627623321861e+07
1.349367140588306343e-08	1.615268943015373498e+07	4.560731626997347176e+07
1.393619274224142065e-08	1.615253908543356322e+07	4.560708904866742343e+07
1.439322644719406651e-08	1.615238381019859947e+07	4.560685437569954991e+07
1.486524844997857277e-08	1.615222344275392964e+07	4.560661200669460744e+07
1.535275028780422776e-08	1.615205781610190310e+07	4.560636168926312029e+07
1.585623961771137302e-08	1.615188677806179039e+07	4.560610316575652361e+07
1.637624074521687477e-08	1.615171155396129936e+07	4.560583637567457557e+07
1.691329517029648562e-08	1.615153058343340829e+07	4.560556083628340811e+07
1.746796215127245689e-08	1.615134367802556977e+07	4.560527626065177470e+07
1.804081928719382751e-08	1.615115064310498722e+07	4.560498235243859142e+07
1.863246311931559514e-08	1.615095127765593491e+07	4.560467880558434874e+07
1.924350975230330612e-08	1.615074537407042459e+07	4.560436530399239808e+07
1.987459549580983990e-08	1.615053271793202683e+07	4.560404152119977772e+07
2.052637752709252173e-08	1.615031483345136605e+07	4.560370736382450908e+07
2.119953457536071000e-08	1.615009004869353212e+07	4.560336228208875656e+07
2.189476762856620985e-08	1.614985789217982814e+07	4.560300588348999619e+07
2.261280066337277307e-08	1.614961812215548940e+07	4.560263779689472914e+07
2.335438139906479724e-08	1.614937048893748410e+07	4.560225763899824768e+07
2.412028207618007283e-08	1.614911473465448059e+07	4.560186501392546296e+07
2.491130026067788373e-08	1.614885059297832474e+07	4.560145951281867176e+07
2.572825967447932303e-08	1.614857981272717007e+07	4.560104104863435030e+07
2.657201105324503850e-08	1.614830086426409893e+07	4.560060897895275056e+07
2.744343303228365032e-08	1.614801276776096039e+07	4.560016273966176808e+07
2.834343306151309448e-08	1.614771522321023792e+07	4.559970186607287079e+07
2.927294835042816131e-08	1.614740792076573707e+07	4.559922587825817615e+07
3.023294684405776334e-08	1.614709054041995294e+07	4.559873428055069596e+07
3.122442823092858392e-08	1.614676275167081319e+07	4.559822656102818996e+07
3.224842498408442807e-08	1.614642650455490313e+07	4.559770260566692054e+07
3.330600343624588813e-08	1.614608073706243746e+07	4.559716174001865089e+07
3.439826489022924478e-08	1.614572363021774776e+07	4.559660313682644069e+07
3.552634676578139226e-08	1.614535481214982271e+07	4.559602621439229697e+07
3.669142378402493899e-08	1.614497389879223146e+07	4.559543037194158137e+07
3.789470919074667737e-08	1.614458049348319508e+07	4.559481498899742961e+07
3.913745601980383687e-08	1.614417418655251153e+07	4.559417942473459989e+07
4.042095839796305955e-08	1.614375699547335319e+07	4.559352349613744020e+07
4.174655289253134782e-08	1.614332890364584140e+07	4.559284660213608295e+07
4.311561990318228626e-08	1.614288677266160958e+07	4.559214750957741588e+07
4.452958509942655287e-08	1.614243014211027697e+07	4.559142549046569318e+07
4.598992090522439315e-08	1.614195853648242541e+07	4.559067979293076694e+07
4.749814803228499868e-08	1.614147146467443928e+07	4.558990964044508338e+07
4.905583706365045989e-08	1.614096841947708465e+07	4.558911423101510108e+07
5.066461008921269181e-08	1.614045125810565613e+07	4.558829326383738965e+07
5.232614239486661694e-08	1.613992192472251318e+07	4.558744643401261419e+07
5.404216420705915059e-08	1.613937523199297488e+07	4.558657183263074607e+07
5.581446249454960394e-08	1.613881061062192731e+07	4.558566854893103242e+07
5.764488282925879445e-08	1.613822747264438309e+07	4.558473564228453487e+07
5.953533130814369715e-08	1.613762521081319079e+07	4.558377214121466130e+07
6.148777653810024108e-08	1.613700319796670042e+07	4.558277704238550365e+07
6.350425168595962148e-08	1.613636272754705511e+07	4.558174977761700749e+07
6.558685659571428548e-08	1.613570914425483532e+07	4.558069072671724111e+07
6.773775997517751128e-08	1.613503412687375955e+07	4.557959694452711940e+07
6.995920165435375620e-08	1.613433697247863002e+07	4.557846729204330593e+07
7.225349491787214948e-08	1.613361695509200916e+07	4.557730059290912747e+07
7.462302891391107044e-08	1.613287332492821477e+07	4.557609563218960911e+07
7.707027114212294845e-08	1.613210530761255138e+07	4.557485115510631353e+07
7.959777002314985573e-08	1.613131295334327966e+07	4.557356609420549124e+07
8.220815755240541849e-08	1.613050718749535643e+07	4.557224226987356693e+07
8.490415204088747078e-08	1.612967499677246250e+07	4.557087503107756376e+07
8.768856094587425811e-08	1.612881551457790658e+07	4.556946295405178517e+07
9.056428379445295063e-08	1.612792784589518979e+07	4.556800456833849102e+07
9.353431520292386860e-08	1.612701106635599211e+07	4.556649835525669903e+07
9.660174799522647250e-08	1.612606422127757780e+07	4.556494274632067233e+07
9.976977642363202159e-08	1.612508632466864586e+07	4.556333612160662562e+07
1.030416994950587396e-07	1.612409334970152006e+07	4.556168187251871824e+07
1.064209244064724761e-07	1.612306913863462768e+07	4.555997376867046207e+07
1.099109700929497372e-07	1.612201133884036727e+07	4.555820964801441133e+07
1.135154708920999096e-07	1.612091884878543019e+07	4.555638767349438369e+07
1.172381803286598596e-07	1.611979053081201762e+07	4.555450594780839980e+07
1.210829750232039531e-07	1.611862520995314792e+07	4.555256251143299788e+07
1.250538587290391570e-07	1.611742167270911112e+07	4.555055534058266878e+07
1.291549665014884007e-07	1.611619835925139673e+07	4.554848884253554046e+07
1.333905690039058854e-07	1.611494015624885261e+07	4.554635629933265597e+07
1.377650769549053468e-07	1.611364069081613980e+07	4.554415381994713098e+07
1.422830457214352017e-07	1.611229860976292565e+07	4.554187911084059626e+07
1.469491800624817218e-07	1.611091251552135684e+07	4.553952980325872451e+07
1.517683390283405561e-07	1.610948096469072066e+07	4.553710345076449960e+07
1.567455410205594968e-07	1.610800246653436683e+07	4.553459752669069171e+07
1.618859690178197646e-07	1.610649754630271532e+07	4.553201749587827921e+07
1.671949759731990056e-07	1.610495497180785798e+07	4.552935713482249528e+07
1.726780903884356132e-07	1.610336180899598077e+07	4.552660952793908119e+07
1.783410220710008120e-07	1.610171639883678220e+07	4.552377181402450055e+07
1.841896680799711039e-07	1.610001702789251693e+07	4.552084103804282844e+07
1.902301188668944219e-07	1.609826192653370276e+07	4.551781414804852009e+07
1.964686646180446931e-07	1.609644926709633879e+07	4.551468799200831354e+07
2.029118018046678038e-07	1.609460078515283763e+07	4.551146889476536959e+07
2.095662399480432992e-07	1.609271371688742191e+07	4.550815316391712427e+07
2.164389086064020114e-07	1.609076476272413135e+07	4.550472869456459582e+07
2.235369645909794139e-07	1.608875189313152991e+07	4.550119192065768689e+07
2.308677994187169850e-07	1.608667301202025265e+07	4.549753915919864178e+07
2.384390470093720426e-07	1.608452595456024073e+07	4.549376660640677810e+07
2.462585916350547006e-07	1.608230848492641374e+07	4.548987033375746757e+07
2.543345761304648365e-07	1.608004177821225487e+07	4.548585685446884483e+07
2.626754103723835758e-07	1.607773874499045499e+07	4.548172886281165481e+07
2.712897800372467241e-07	1.607536018441154622e+07	4.547746549477468431e+07
2.801866556459195443e-07	1.607290361957610026e+07	4.547306231072588265e+07
2.893753019050950594e-07	1.607036649235543236e+07	4.546851472543660551e+07
2.988652873550382326e-07	1.606774616072771885e+07	4.546381800330688804e+07
3.086664943337274455e-07	1.606503989602673613e+07	4.545896725343403220e+07
3.187891292677645596e-07	1.606226526404238492e+07	4.545396760358904302e+07
3.292437333007768907e-07	1.605946178655943647e+07	4.544883502613975853e+07
3.400411932703706463e-07	1.605656636978399754e+07	4.544353412718896568e+07
3.511927530450727317e-07	1.605357599859161302e+07	4.543805938667815924e+07
3.627100252330649086e-07	1.605048755897763558e+07	4.543240510351996869e+07
3.746050032748993774e-07	1.604729783481447026e+07	4.542656538966141641e+07
3.868900739327976195e-07	1.604400350450247899e+07	4.542053416395238787e+07
3.995780301895269929e-07	1.604061356825237721e+07	4.541431203651310503e+07
4.126820845702951630e-07	1.603721036845759675e+07	4.540794012943602353e+07
4.262158829015325345e-07	1.603369556163788028e+07	4.540135925737453997e+07
4.401935185208874400e-07	1.603006548767076246e+07	4.539456256737800688e+07
4.546295469532399562e-07	1.602631636640105024e+07	4.538754298175509274e+07
4.695390010680058238e-07	1.602244429370436259e+07	4.538029319070350379e+07
4.849374067335232931e-07	1.601844523742161877e+07	4.537280564469790459e+07
5.008407989848212921e-07	1.601431503316015191e+07	4.536507254662832618e+07
5.172657387216018967e-07	1.601019311883436330e+07	4.535717423922434449e+07
