# Frequency (Hz)	Real Part (Ohm)
1000.0	81176.5341834514
1018.6101701559753	82687.24329704311
1037.566678745186	84226.06696429508
1056.875971184804	85793.52840183451
1076.544612842316	87390.16056343958
1096.5792912678098	89016.50632124853
1116.9868184678226	90673.11865034276
1137.7741332214914	92360.56081676405
1158.9483034398106	94079.40656903063
1180.5165285688056	95830.2403332189
1202.4861420374123	97613.6574116735
1224.8646137509306	99430.26418541714
1247.6595526308697	101280.6783203268
1270.8787092020582	103165.52897714602
1294.529978227916	105085.45702540733
1318.6214013947485	107041.11526133395
1343.1611700460153	109033.1686297981
1368.1576279674719	111062.29445040926
1393.6192742241421	113129.18264780974
1419.5547660501015	115234.53598625737
1445.9729217920196	117379.07030857184
1472.8827239075017	119563.5147795299
1500.2933220192183	121788.61213378888
1528.2140360258693	124055.11892842413
1556.654359271062	126363.8058001673
1585.6239617711371	128715.45772743037
1615.1326935030913	131110.8742972076
1645.1905877536624	133550.86997694266
1675.8078645307671	136036.27439145744
1706.994934038408	138567.93260503287
1738.7624002162504	141146.7054087396
1771.1210643450886	143773.46961311705
1804.0819287193829	146449.11834629744
1837.6562003881704	149174.56135767995
1871.8552949655793	151950.72532725483
1906.690840512252	154778.55418068427
1942.1746814890264	157659.00941024814
1978.3188827841643	160593.07040176075
2015.1357338155585	163581.73476757354
2052.6377527092523	166626.01868577304
2090.83769055575	169726.95724569334
2129.748535745521	172885.6047998571
2169.3835183851843	176103.03532246652
2209.756114795903	179380.34277456687
2250.880052095462	182718.6414760041
2292.7693128656488	186119.06648430647
2335.438139906479	189582.77398061624
2378.9010410788933	193110.94166280268
2423.1727942376006	196704.7691458936
2468.2684522556924	200365.47836995588
2514.2033481427966	204094.31401556954
2560.9931002584594	207892.54392703183
2608.6536176225477	211761.45954343778
2657.201105324507	215702.37633778452
2706.652070033241	219716.63426424415
2757.0233256095826	223805.59821376533
2808.3319988231724	227970.6584781489
2860.595535175742	232213.2312227623
2913.8317048327885	236534.7589680524
2968.058608665602	240936.71108001575
3023.2946844057765	245420.5842698013
3079.5587129142264	249987.90310260674
3136.8698245668766	254640.22051604706
3195.2475057592137	259379.11834817138
3254.711605531848	264206.207875303
3315.282342319423	269123.13035989273
3376.9803108250912	274131.5576085647
3439.8264890229248	279233.19254054787
3503.8422452906757	284429.76976668934
3569.0493456752297	289723.0561792377
3635.4699612933177	295114.85155260784
3703.126675869927	300606.98915532284
3772.0424934169973	306201.33637334424
3842.240846055061	311899.79534500476
3913.745601980384	317704.30360775464
3986.581073580439	323616.83475694584
4060.7720257003652	329639.39911687636
4136.343684063274	335774.0444243202
4213.321743847289	342022.8565247826
4291.732378422157	348387.9600817068
4371.602248248502	354871.51929888583
4452.958509942656	361475.73865631333
4535.828825510186	368202.8636597294
4620.241371751313	375055.1816041201
4706.224849841282	382035.0223514183
4793.808495089107	389144.7591226853
4883.02208687788	396386.8093050304
4973.895958790063	403763.63527354645
5066.461008921268	411277.7452285479
5160.7487103859075	418931.6940483825
5256.791122018419	426728.08415811916
5354.620899273607	434669.56641440094
5454.271305329837	442758.8410067627
5555.7762223988775	450998.6583757262
5659.170163246243	459391.8201479806
5764.488282925873	467941.1800889629
5871.766390733255	476649.6450731723
5981.040962380944	485520.17607253505
6092.349152400711	494555.7891631693
6205.7288067765	503759.55655088404
6321.218475812449	513134.6076157598
6438.857427240419	522684.1299761747
6558.685659571435	532411.3705726252
6680.743915695614	542319.6367717229
6805.073696735207	552412.2974907368
6931.7172761554075	562692.7843430586
7060.717714137772	573164.5928049877
7192.118872221193	583831.2834042347
7325.9654282152305	594696.4829305343
7462.302891391108	605763.8856687968
7601.17761795533	617037.254655204
7742.63682681127	628520.4229566786
7886.728615614156	640217.2949741739
8033.501977124734	652131.8477702066
8183.006815867389	664268.1324211063
8335.293965098195	676630.275394421
8490.415204088747	689222.479951961
8648.423275731726	702049.027578956
8809.37190447399	715114.2794398029
8973.31581458352	728422.6778609107
9140.310748756232	741978.7478411393
9310.413487069076	755787.0985903459
9483.681866285928	769852.425096569
9660.174799522645	784179.5097223717
9839.952296278227	798773.2238308997
10023.075482838643	813638.5294421951
10209.606623060476	828780.4809203385
10399.609139541202	844204.2266919824
10593.147635183701	859915.0109968793
10790.287915161836	875918.1756709742
10991.097009294961	892219.1619626876
11195.643194838794	908823.5123830022
11403.996019700331	925736.8725899662
11616.226326085018	942964.9933082911
11832.40627458378	960513.7322846522
12052.609368708414	978389.0562793859
12276.910479883603	996597.0430952568
12505.385872903913	1015143.8836439665
12738.113231864785	1034035.8840511435
12975.171686575868	1053279.4678004847
13216.641839466038	1072881.1779178123
13462.60579298911	1092847.6791957738
13713.147177539457	1113185.760459935
13968.351179887397	1133902.3368770683
14228.30457214352	1155004.4523063737
14493.095741262152	1176499.2816944702
14762.81471909391	1198394.1335149542
15037.553212997384	1220696.4522533556
15317.404637020798	1243413.8209383509
15602.46414366368	1266553.9637200707
15892.828656229764	1290124.7484963913
16188.596901781992	1314134.189588112
16489.86944471065	1338590.450463897
16796.74872092653	1363501.8465159591
17109.339072690134	1388876.8478873726
17427.746784089173	1414724.0823520164
17752.08011717636	1441052.3382481115
18082.44934877952	1467870.5674663405
18418.96680799711	1495187.8884936029
18761.746914391195	1523013.5895133873
19110.90621689136	1551357.1315638588
19466.563433422634	1580228.1517547169
19828.839491270715	1609636.4665439003
20197.857568198782	1639592.07507531
20573.743134329117	1670105.1625786156
20956.623994804308	1701186.103832341
21346.630333242454	1732845.466691411
21743.8947560008	1765094.015680314
22148.552337263594	1797942.7156531839
22560.74066496859	1831402.7355219508
22980.599887588487	1865485.4520538985
23408.272761782944	1900202.4537398876
23843.904700937204	1935565.5447345537
24287.643824604504	1971586.748869872
24739.641008868115	2008278.3137433715
25200.049937640895	2045652.7148824562
25669.02715491952	2083722.6599862217
26146.73211801092	2122501.0932461913
26633.327251749808	2162001.199747512
27128.978003724646	2202236.4099520007
27633.85290053167	2243220.4042646573
28148.123605075813	2284967.117685148
28671.9649749377	2327490.7445458425
29205.555121827452	2370805.7433380634
29749.075472144435	2414926.841628119
30302.71082866393	2459869.0410648105
30866.649433372746	2505647.6224802122
31441.083031472648	2552278.1510852487
32026.206936576502	2599776.4817620884
32622.220097116733	2648158.7644549557
33229.325163989684	2697441.449661259
33847.72855945983	2747641.2940250067
34477.64054734464	2798775.3660341613
35119.275304507275	2850861.0518241744
35772.850993678774	2903916.061089437
36438.58983763541	2957958.433104739
37116.71819475767	3013006.5428588917
37807.46663599349	3069079.107302327
38511.07002325569	3126195.191711138
39227.76758927724	3184374.216169446
39957.803018952654	3243635.9621724174
40701.42453219439	3304000.579352259
41458.88496832911	3365488.5923292106
42230.44187206672	3428120.9076902163
43016.357581068	3491918.8210973605
43816.89931514195	3556904.0245286003
44632.33926710398	3623098.6136533157
45462.95469532399	3690525.0953450473
46309.02801799737	3759206.395334082
47170.84690917022	3829165.866002453
48048.70439655134	3900427.294323976
48942.898961145314	3973014.90995212
49853.73463873893	4046953.3934583208
50781.5211232767	4122267.8847236475
51726.57387216025	4198983.991486641
52689.21421350677	4277127.798050189
53669.76945540476	4356725.874150521
54668.57299720181	4437805.283991167
55685.96444286409	4520393.595445095
56722.28971644549	4604518.889428083
57777.90117970507	4690209.769446508
58853.15775191451	4777495.371322889
59948.42503189409	4866405.373102358
61064.07542232036	4956970.00514351
62200.48825634718	5049220.060397073
63358.04992658254	5143186.904875791
64537.15401646702	5238902.488319278
65738.20143409586	5336399.355057228
66961.60054853215	5435710.655074844
68207.76732865692	5536870.155284211
69477.1254846024	5639912.251005357
70770.10661181889	5744871.9776611
72087.15033782135	5851785.022689435
73428.70447166757	5960687.737677638
74795.2251562183	6071617.150722234
76187.17702322999	6184610.979018875
77605.0333513357	6299707.641686694
79049.2762269642	6416946.272831146
80520.3967082547	6536366.734850052
82018.89499202212	6658009.631987245
83545.28058382872	6781916.324138416
85100.07247122246	6908128.940913985
86683.79930019774	7036690.395963577
88296.99955494083	7167644.4015671415
89940.22174092053	7301035.48349761
91614.0245713852	7436908.996160079
93318.97715733238	7575311.138012888
95055.6592010119	7716288.9672755245
96824.66119303113	7859890.417928964
98626.5846131283	8006164.316013725
100462.04213468131	8155160.3962312015
102331.6578330245	8306929.318854101
104236.06739764012	8461522.686951399
106175.9183482999	8618993.063933976
108151.87025522892	8779393.991426742
110164.59496336569	8942780.007473305
112214.77682079803	9109206.665079603
114303.11291144787	9278730.551102445
116430.31329208757	9451409.305489674
118597.10123376705	9627301.640878385
120804.21346773289	9806467.362557797
123052.40043592616	9988967.388803782
125342.42654613995	10174863.771591673
127675.07043192645	10364219.717694629
130051.12521734099	10557099.610174626
132471.39878661174	10753569.030273322
134936.71405883064	10953694.7797105
137447.90926775365	11157544.903397292
140005.8382468096	11365188.712572219
142611.37071941298	11576696.808367746
145265.39259467812	11792141.105815368
147968.80626863963	12011594.85829763
150722.53093107554	12235132.682454947
153527.5028780421	12462830.58355614
156384.6758302248	12694765.981341
159295.0212572123	12931017.736343812
162259.5287078087	13171666.176706864
165279.2061464897	13416793.125492873
168355.08029612005	13666481.928505553
171488.19698705408	13920817.482628394
174679.62151272458	14179886.264690157
177930.43899185772	14443776.36086818
181241.75473742394	14712577.496638589
184614.69463245457	14986381.067283737
188050.40551285836	15265280.168967977
191550.05555735278	15549369.630390871
195114.83468466165	15838746.045030357
198745.9549580986	16133507.803985458
202444.65099768018	16433755.129430111
206212.18039991445	16739590.108690234
210049.82416539153	17051116.728954006
213958.88713434216	17368440.912629
217940.6984302958	17691670.553356834
221996.61191199525	18020915.552697983
226128.00663372796	18356287.85749996
230336.28731421314	18697901.49795986
234622.88481422624	19045872.62639632
238989.25662310526	19400319.5567424
243436.8873543108	19761362.804773394
247967.289250216	20129125.129083995
252582.00269627848	20503731.572826926
257282.5967447932	20885309.506229445
262070.66964838552	21273988.669900388
266947.8494034318	21669901.218943253
271915.7943036019	22073181.767890766
276976.1935036891	22483967.436474755
282130.76759394706	22902397.896248717
287381.2691851069	23328615.41807757
292729.4835042813	23762764.92051102
298177.22900196735	24204994.019057985
303726.35797033116	24655453.076376773
309378.7571730137	25114295.253400575
315136.34848664823	25581676.56141357
321001.08955431683	26057755.91509632
326974.9744511768	26542695.186558954
333060.03436245886	27036659.260378763
339258.33827409917	27539816.089663316
345571.9936762143	28052336.753156032
352003.14727966755	28574395.513404705
358553.9857459817	29106169.87601312
365226.7364308176	29647840.64999421
372023.6681413066	30199592.009247605
378947.09190746717	30761611.55518057
385999.3617679763	31334090.380494196
393182.87557057705	31917223.134157732
400500.07578736113	32511208.087590404
407953.4503452449	33116247.20207654
415545.53347188793	33732546.19743436
423278.90655735444	34360314.62196261
431156.19903182285	34999765.92369001
439180.0892596086	35651117.52294895
447353.3054498463	36314590.88630147
455678.6265841069	36990411.60184001
464158.8833612772	37678809.4558895
472796.9591600391	38380018.511138014
481595.7910192351	39094277.18621954
490558.37063650455	39821828.336779706
499687.7453854889	40562919.33804907
508987.01935196744	41317802.16895294
518459.3543892913	42086733.49778794
528107.971193433	42869974.76949072
537936.1503980698	43667792.29453306
547947.2336900292	44480457.33946998
558144.6249454955	45308246.219172776
568531.7913873753	46151440.39078027
579112.2647641759	47010326.54939579
589889.6425508494	47885196.725567795
600867.5891719693	48776348.38458282
612049.837247669	49684084.52760669
623440.1888627864	50608713.79470918
635042.5168595962	51550550.569803536
646860.7661546321	52509915.087541535
658898.9550799957	53487133.542196386
671161.1767496273	54482538.198571675
683651.6004510239	55496467.5049764
696374.4730628222	56529266.20829934
709334.1204987989	57581285.471227966
722534.9491787221	58652882.99164719
735981.4475265756	59744423.1242599
749678.1874966876	60856277.00447286
763629.8261282241	61988822.67458503
777841.1071286482	63142445.212327406
792316.8624866261	64317536.861793056
807062.014114949	65514497.16680386
822081.5755240541	66733733.10676116
837380.653526649	67975659.23502119
852964.4499741016	69240697.81984927
868838.2635251193	70529278.98799504
885007.4914473438	71841840.87093966
901477.6314524917	73178829.7538661
918254.2835656282	74540700.22740045
935343.1520292377	75927915.3421777
952750.04724273	77340946.76628402
970480.8877380306	78780274.94562857
988541.7021919574	80246389.267301
1006938.6314760271	81739788.22596784
1025677.9307444209	83260979.59336628
1044765.9715608052	84810480.59095195
1064209.2440647245	86388818.06575938
1084014.359178331	87996528.66953649
1104188.0508541602	89634159.04121149
1124737.1783647507	91302265.99275595
1145668.7286348727	93001416.69850719
1166989.8186171474	94732188.88801296
1188707.6977119034	96495171.04246663
1210829.7502320395	98290962.5947966
1233363.4979137748	100120174.13348013
1256316.6024741214	101983427.61015005
1279696.8682159416	103881356.55106427
1303512.244681509	105814606.27251291
1327770.8293554292	107783834.10023166
1352480.870417874	109789709.59290016
1377650.769549055	111832914.76979914
1403289.084785873	113914144.34270352
1429404.533431761	116034105.95209333
1456005.9950206485	118193520.40775803
1483102.5143361029	120393121.93387993
1510703.3044866556	122633658.41867857
1538817.7500383463	124915891.66869964
1567455.410205595	127240597.66783926
1596626.022101425	129608566.84118554
1626339.5040481905	132020604.32377183
1656605.9589499151	134477530.23433197
1687435.6777273756	136980179.95414796
1718839.1428171457	139529404.41109052
1750827.0317357269	142126070.36894286
1783410.2207100063	144771060.72210845
1816599.7883753285	147465274.79580796
1850407.019542302	150209628.6518554
1884843.4090337954	153005055.40013203
1919920.6655932867	155852505.51585302
1955650.715865947	158752947.16273755
1992045.7084538713	161707366.5221987
2029118.018046678	164716768.12865132
2066880.2496290822	167139581.77880162
2105345.242766708	168964628.2171287
2144526.0759716653	170823639.08021513
2184436.0711494284	172717246.4517859
2225088.7981283693	174646094.17874998
2266498.079273693	176610838.09011778
2308677.994187172	178612146.21998933
2351642.884494346	180650699.0346918
2395407.3587208795	182727189.66414842
2439986.29725955	184842324.13754618
2485394.8574297987	186996821.62339666
2531648.478631358	189191414.67405963
2578762.8875937983	191426849.47481817
2626754.1037238385	193703886.09759185
2675638.4445520453	196023298.7593665
2725432.531281028	198385876.08543867
2776153.294436804	200792421.37755597
2827817.979625338	203243752.88704717
2880444.1533962977	205740704.09303927
2934049.7092157872	208284123.9858456
2988652.8735503824	210874877.35563526
3044272.212064306	213513845.08646917
3100926.6359319235	216201924.4558094
3158635.408267819	218940029.4396065
3217418.1506763715	221729091.02305666
3277294.849923382	224570057.51715025
3338285.8647317644	227463894.88110673
3400411.9327037027	230411587.05080947
3463694.1773717343	233414136.27335855
3528154.115380883	236472563.4478405
3593813.6638046256	239587908.47244936
3660695.147596906	242761230.598061
3728821.30718283	245993608.78838927
3798215.306190736	249286142.08684886
3868900.7393279755	252639949.99023664
3940901.6404034477	256056172.82937676
4014242.490499326	259535972.15684447
4088948.226294856	263080531.1419042
4165044.248545185	263170533.01426938
4242556.430717777	262915442.24818915
4321511.127789762	262655604.19954693
4401935.185208879	262390930.5206065
4483855.948021182	262121331.21946526
4567301.270168747	261846714.62945575
4652299.523960189	261566987.37797844
4738879.609717651	261282054.35475406
4827070.965603188	260991818.67948434
4916903.577628021	260696181.66891256
5008407.989848212	260395042.80326957
5101615.314749834	260088299.69209635
5196557.243827658	259775848.03943005
5293266.058360566	259457581.6083421
5391774.640387494	259133392.18481675
5492116.483887789	258803169.54095677
5594325.706169377	258466801.3975052
5698437.059469136	258124173.385669
5804485.942768984	257775169.00823218
5912508.413831869	257419669.59994626
6022541.201461928	257057554.28718174
6134621.717992506	256688699.9468305
6248788.072006888	251750856.9130015
6365079.081295578	246329898.4752324
6483534.286054714	240808055.0785291
6604193.962330305	235183449.23663718
6727099.135712337	229454168.52296814
6852291.595284058	223618264.9203462
6979813.907830667	217673754.15866506
7109709.432312424	211618615.04021633
7242022.334607315	205450788.7524538
7376797.602527731	199168178.16798416
7514081.061116962	192768647.1315139
7653919.388230155	186250019.73353568
7796360.130405221	179610079.5704992
7941451.71902934	172846568.99120155
8089243.486805938	165957188.32917225
8239785.684528511	158129523.67498142
8393129.498166373	148418520.70845315
8549327.066268368	138526794.3243347
8708431.497690724	128450981.22906938
8870496.889654404	118187655.53764237
9035578.34613892	107733327.60873179
9203731.99661823	97084442.85819665
9375015.015145289	86237380.55048385
9549485.639791965	75188452.56753206
9727203.192450536	63933902.154776394
9908228.099003788	52469902.64381022
10092621.909870485	40792556.15127574
10280447.320933098	29487656.787419472
10471768.194855202	20103516.49732454
10666649.582795387	10544735.759663366
10865157.746525373	808064.4859905785
11067360.180959744	-9109807.896839023
11273325.63710487	-19212253.572297305
11483124.145435112	-29502707.480767407
11696827.039703846	-39984668.487456225
11914506.981197748	-50661700.57204798
12136237.983442418	-61537434.040495925
12362095.43736769	-70082639.69024237
12592156.13694151	-73609853.58952008
12826498.3052806	-77202709.53963988
13065201.621247198	-80862429.15033731
13308347.24654076	-84590256.7657134
13556017.853293689	-88387459.88732338
13808297.652180923	-92255329.60514331
14065272.421052365	-96195181.03655303
14327029.534098294	-100208353.77349049
14593657.991557576	-95702051.52126518
14865248.449978571	-90849017.84737147
15141893.25304352	-85905668.39103398
15423686.462966274	-80870322.3601735
15710723.89247449	-75741267.68288457
16003103.137387017	-70516760.42531143
16300923.60979741	-65195024.198694274
16604286.571875297	-56275001.12076049
16913295.17029647	-45875057.01412726
17228054.471313924	-35281568.178056955
17548671.49648152	-24490932.71220085
17875255.259042356	-13499481.684235072
18207916.800994623	-2303477.88237797
18546769.230846975	8316706.810234902
18891927.762076642	17606177.73317875
19243509.75230332	27068527.290658657
19601634.743191857	36706972.783477575
19966424.501097932	46524791.386956856
20338003.0584698	56525321.26520743
20716496.75602067	61641307.48661295
21102034.285685964	63810697.59343977
