# Frequency (Hz)	Imaginary Part (Ohm)
1000.0	334931055.9639439
1018.6101701559753	334930554.8473807
1037.566678745186	334930044.404953
1056.875971184804	334929524.463105
1076.544612842316	334928994.8450507
1096.5792912678098	334928455.3707141
1116.9868184678226	334927905.8566686
1137.7741332214914	334927346.1160731
1158.9483034398106	334926775.9586098
1180.5165285688056	334926195.19041926
1202.4861420374123	334925603.61403364
1224.8646137509306	334925001.02831095
1247.6595526308697	334924387.2283655
1270.8787092020582	334923762.0054986
1294.529978227916	334923125.1471276
1318.6214013947485	334922476.4367141
1343.1611700460153	334921815.65368944
1368.1576279674719	334921142.57338005
1393.6192742241421	334920456.96693176
1419.5547660501015	334919758.6012308
1445.9729217920196	334919047.2388252
1472.8827239075017	334918322.6378444
1500.2933220192183	334917584.5519158
1528.2140360258693	334916832.73008263
1556.654359271062	334916066.91671735
1585.6239617711371	334915286.8514348
1615.1326935030913	334914492.26900464
1645.1905877536624	334913682.8992602
1675.8078645307671	334912858.4670073
1706.994934038408	334912018.69192976
1738.7624002162504	334911163.2884951
1771.1210643450886	334910291.965857
1804.0819287193829	334909404.4277564
1837.6562003881704	334908500.3724208
1871.8552949655793	334907579.4924614
1906.690840512252	334906641.47476935
1942.1746814890264	334905686.0004084
1978.3188827841643	334904712.7445071
2015.1357338155585	334903721.37614775
2052.6377527092523	334902711.5582547
2090.83769055575	334901682.94747865
2129.748535745521	334900635.1940811
2169.3835183851843	334899567.9418146
2209.756114795903	334898480.82780164
2250.880052095462	334897373.48241216
2292.7693128656488	334896245.52913654
2335.438139906479	334895096.5844584
2378.9010410788933	334893926.25772434
2423.1727942376006	334892734.15101075
2468.2684522556924	334891519.85898817
2514.2033481427966	334890282.9687846
2560.9931002584594	334889023.0598437
2608.6536176225477	334887739.7037831
2657.201105324507	334886432.46424794
2706.652070033241	334885100.8967625
2757.0233256095826	334883744.5485796
2808.3319988231724	334882362.95852625
2860.595535175742	334880955.6568469
2913.8317048327885	334879522.1650439
2968.058608665602	334878061.9957144
3023.2946844057765	334876574.6523853
3079.5587129142264	334875059.62934375
3136.8698245668766	334873516.4114656
3195.2475057592137	334871944.4740402
3254.711605531848	334870343.2825918
3315.282342319423	334868712.2926981
3376.9803108250912	334867050.94980484
3439.8264890229248	334865358.6890379
3503.8422452906757	334863634.93500996
3569.0493456752297	334861879.1016263
3635.4699612933177	334860090.5918846
3703.126675869927	334858268.79767233
3772.0424934169973	334856413.0995597
3842.240846055061	334854522.86658937
3913.745601980384	334852597.45606196
3986.581073580439	334850636.213317
4060.7720257003652	334848638.4715108
4136.343684063274	334846603.5513897
4213.321743847289	334844530.7610589
4291.732378422157	334842419.39574736
4371.602248248502	334840268.73756796
4452.958509942656	334838078.055274
4535.828825510186	334835846.60400987
4620.241371751313	334833573.62505794
4706.224849841282	334831258.3455808
4793.808495089107	334828899.97835886
4883.02208687788	334826497.7215217
4973.895958790063	334824050.7582758
5066.461008921268	334821558.2566277
5160.7487103859075	334819019.3690996
5256.791122018419	334816433.2324428
5354.620899273607	334813798.9673427
5454.271305329837	334811115.67812085
5555.7762223988775	334808382.45243
5659.170163246243	334805598.3609439
5764.488282925873	334802762.45704156
5871.766390733255	334799873.7764852
5981.040962380944	334796931.33709204
6092.349152400711	334793934.13840103
6205.7288067765	334790881.1613325
6321.218475812449	334787771.36784124
6438.857427240419	334784603.700564
6558.685659571435	334781377.0824597
6680.743915695614	334778090.4164433
6805.073696735207	334774742.5850132
6931.7172761554075	334771332.4498705
7060.717714137772	334767858.8515325
7192.118872221193	334764320.6089386
7325.9654282152305	334760716.5190477
7462.302891391108	334757045.3564308
7601.17761795533	334753305.872853
7742.63682681127	334749496.79684937
7886.728615614156	334745616.83329326
8033.501977124734	334741664.6629552
8183.006815867389	334737638.9420546
8335.293965098195	334733538.3018031
8490.415204088747	334729361.34793866
8648.423275731726	334725106.66025215
8809.37190447399	334720772.7921038
8973.31581458352	334716358.26993185
9140.310748756232	334711861.592751
9310.413487069076	334707281.2316427
9483.681866285928	334702615.6292349
9660.174799522645	334697863.19917244
9839.952296278227	334693022.32557774
10023.075482838643	334688091.3625019
10209.606623060476	334683068.63336396
10399.609139541202	334677952.43038225
10593.147635183701	334672741.0139924
10790.287915161836	334667432.61225694
10991.097009294961	334662025.42026186
11195.643194838794	334656517.59950364
11403.996019700331	334650907.27726394
11616.226326085018	334645192.5459728
11832.40627458378	334639371.4625598
12052.609368708414	334633442.0477941
12276.910479883603	334627402.2856106
12505.385872903913	334621250.1224253
12738.113231864785	334614983.46643615
12975.171686575868	334608600.1869128
13216.641839466038	334602098.1134714
13462.60579298911	334595475.0353369
13713.147177539457	334588728.7005912
13968.351179887397	334581856.8154081
14228.30457214352	334574857.0432724
14493.095741262152	334567727.00418615
14762.81471909391	334560464.2738594
15037.553212997384	334553066.3828854
15317.404637020798	334545530.81590164
15602.46414366368	334537855.010734
15892.828656229764	334530036.35752624
16188.596901781992	334522072.1978518
16489.86944471065	334513959.8238107
16796.74872092653	334505696.47710824
17109.339072690134	334497279.3481176
17427.746784089173	334488705.57492435
17752.08011717636	334479972.2423531
18082.44934877952	334471076.38097644
18418.96680799711	334462014.966106
18761.746914391195	334452784.916763
19110.90621689136	334443383.0946313
19466.563433422634	334433806.3029898
19828.839491270715	334424051.28562635
20197.857568198782	334414114.7257299
20573.743134329117	334403993.24476284
20956.623994804308	334393683.401313
21346.630333242454	334383181.68992215
21743.8947560008	334372484.53989536
22148.552337263594	334361588.3140865
22560.74066496859	334350489.3076611
22980.599887588487	334339183.74683774
23408.272761782944	334327667.7876037
23843.904700937204	334315937.5144087
24287.643824604504	334303988.93883365
24739.641008868115	334291817.9982341
25200.049937640895	334279420.55435896
25669.02715491952	334266792.39194375
26146.73211801092	334253929.2172774
26633.327251749808	334240826.6567417
27128.978003724646	334227480.2553248
27633.85290053167	334213885.47510666
28148.123605075813	334200037.69371545
28671.9649749377	334185932.20275635
29205.555121827452	334171564.2062102
29749.075472144435	334156928.81880367
30302.71082866393	334142021.06434715
30866.649433372746	334126835.87404346
31441.083031472648	334111368.0847644
32026.206936576502	334095612.437295
32622.220097116733	334079563.57454526
33229.325163989684	334063216.0397289
33847.72855945983	334046564.27450794
34477.64054734464	334029602.61710286
35119.275304507275	334012325.3003675
35772.850993678774	333994726.4498277
36438.58983763541	333976800.0816847
37116.71819475767	333958540.10078037
37807.46663599349	333939940.2985245
38511.07002325569	333920994.35078365
39227.76758927724	333901695.81573164
39957.803018952654	333882038.1316585
40701.42453219439	333862014.61473984
41458.88496832911	333841618.45676434
42230.44187206672	333820842.72281826
43016.357581068	333799680.3489284
43816.89931514195	333778124.13965946
44632.33926710398	333756166.7656683
45462.95469532399	333733800.7612108
46309.02801799737	333711018.5216047
47170.84690917022	333687812.30064297
48048.70439655134	333664174.2079605
48942.898961145314	333640096.206351
49853.73463873893	333615570.10903454
50781.5211232767	333590587.5768738
51726.57387216025	333565140.11553854
52689.21421350677	333539219.07261795
53669.76945540476	333512815.6346779
54668.57299720181	333485920.8242651
55685.96444286409	333458525.4968541
56722.28971644549	333430620.33773863
57777.90117970507	333402195.8588638
58853.15775191451	333373242.39560044
59948.42503189409	333343750.1034592
61064.07542232036	333313708.95474285
62200.48825634718	333283108.7351372
63358.04992658254	333251939.0402379
64537.15401646702	333220189.2720129
65738.20143409586	333187848.63519865
66961.60054853215	333154906.13363045
68207.76732865692	333121350.56650275
69477.1254846024	333087170.5245611
70770.10661181889	333052354.3862229
72087.15033782135	333016890.3136261
73428.70447166757	332980766.2486039
74795.2251562183	332943969.90858483
76187.17702322999	332906488.7824168
77605.0333513357	332868310.1261133
79049.2762269642	332829420.95851964
80520.3967082547	332789808.05689985
82018.89499202212	332749457.95244056
83545.28058382872	332708356.9256714
85100.07247122246	332666491.0018005
86683.79930019774	332623845.9459626
88296.99955494083	332580407.2583794
89940.22174092053	332536160.16942877
91614.0245713852	332491089.6346239
93318.97715733238	332445180.32949716
95055.6592010119	332398416.6443905
96824.66119303113	332350782.67914677
98626.5846131283	332302262.23770463
100462.04213468131	332252838.82259136
102331.6578330245	332202495.6293128
104236.06739764012	332151215.5406415
106175.9183482999	332098981.1207943
108151.87025522892	332045774.6095056
110164.59496336569	331991577.9159886
112214.77682079803	331936372.61278325
114303.11291144787	331880139.9294919
116430.31329208757	331822860.74639595
118597.10123376705	331764515.5879562
120804.21346773289	331705084.6161902
123052.40043592616	331644547.6239272
125342.42654613995	331582884.02793723
127675.07043192645	331520072.8619335
130051.12521734099	331456092.769443
132471.39878661174	331390921.9965443
134936.71405883064	331324538.38447297
137447.90926775365	331256919.3620854
140005.8382468096	331188041.9381854
142611.37071941298	331117882.69370675
145265.39259467812	331046417.77375036
147968.80626863963	330973622.87947327
150722.53093107554	330899473.25982714
153527.5028780421	330823943.7031427
156384.6758302248	330747008.5285564
159295.0212572123	330668641.57728004
162259.5287078087	330588816.2037057
165279.2061464897	330507505.2663466
168355.08029612005	330424681.11860764
171488.19698705408	330340315.5993862
174679.62151272458	330254380.02349675
177930.43899185772	330166845.17191756
181241.75473742394	330077681.2818559
184614.69463245457	329986858.03662837
188050.40551285836	329894344.5553531
191550.05555735278	329800109.3824495
195114.83468466165	329704120.4769436
198745.9549580986	329606345.2015732
202444.65099768018	329506750.3116909
206212.18039991445	329405301.94396144
210049.82416539153	329301965.6048463
213958.88713434216	329196706.15887696
217940.6984302958	329089487.81670773
221996.61191199525	328980274.12294686
226128.00663372796	328869027.94376165
230336.28731421314	328755711.45425266
234622.88481422624	328640286.1255924
238989.25662310526	328522712.71192545
243436.8873543108	328402951.2370244
247967.289250216	328280960.9806973
252582.00269627848	328156700.46494263
257282.5967447932	328030127.439846
262070.66964838552	327901198.8692152
266947.8494034318	327769870.91594696
271915.7943036019	327636098.9271221
276976.1935036891	327499837.41882324
282130.76759394706	327361040.06066924
287381.2691851069	327219659.66006273
292729.4835042813	327075648.1461442
298177.22900196735	326928956.55344737
303726.35797033116	326779535.00524986
309378.7571730137	326627332.6966154
315136.34848664823	326472297.87711906
321001.08955431683	326314377.83325195
326974.9744511768	326153518.87049735
333060.03436245886	325989666.2950748
339258.33827409917	325822764.3953432
345571.9936762143	325652756.42285824
352003.14727966755	325479584.5730774
358553.9857459817	325303189.96570593
365226.7364308176	325123512.62467664
372023.6681413066	324940491.45775765
378947.09190746717	324754064.2357802
385999.3617679763	324564167.5714801
393182.87557057705	324370736.89794505
400500.07578736113	324173706.4466623
407953.4503452449	323973009.22515535
415545.53347188793	323768576.9942062
423278.90655735444	323560340.24465376
431156.19903182285	323348228.17375946
439180.0892596086	323132168.66113365
447353.3054498463	322912088.244214
455678.6265841069	322687912.0932875
464158.8833612772	322459563.98604757
472796.9591600391	322226966.2816768
481595.7910192351	321990039.8944499
490558.37063650455	321748704.2668423
499687.7453854889	321502877.3421402
508987.01935196744	321252475.5365405
518459.3543892913	320997413.7107312
528107.971193433	320737605.1409433
537936.1503980698	320472961.4894637
547947.2336900292	320203392.7745993
558144.6249454955	319928807.3400826
568531.7913873753	319649111.82390714
579112.2647641759	319364211.1265839
589889.6425508494	319074008.37880576
600867.5891719693	318778404.9085118
612049.837247669	318477300.2073371
623440.1888627864	318170591.89643866
635042.5168595962	317858175.6916861
646860.7661546321	317539945.36820364
658898.9550799957	317215792.72425246
671161.1767496273	316885607.54444075
683651.6004510239	316549277.5622498
696374.4730628222	316206688.4218617
709334.1204987989	315857723.63927746
722534.9491787221	315502264.5627108
735981.4475265756	315140190.3322458
749678.1874966876	314771377.8387428
763629.8261282241	314395701.68197995
777841.1071286482	314013034.12801623
792316.8624866261	313623245.0657601
807062.014114949	313226201.96273047
822081.5755240541	312821769.8199941
837380.653526649	312409811.12626487
852964.4499741016	311990185.81114817
868838.2635251193	311562751.19751537
885007.4914473438	311127361.9529923
901477.6314524917	310683870.04054457
918254.2835656282	310232124.66814345
935343.1520292377	309771972.2374947
952750.04724273	309303256.2918141
970480.8877380306	308825817.46262926
988541.7021919574	308339493.4155944
1006938.6314760271	307844118.79529315
1025677.9307444209	307339525.1690173
1044765.9715608052	306825540.96949667
1064209.2440647245	306301991.4365656
1084014.359178331	305768698.55774164
1104188.0508541602	305225481.0076997
1124737.1783647507	304672154.0866197
1145668.7286348727	304108529.6573866
1166989.8186171474	303534416.08162147
1188707.6977119034	302949618.1545225
1210829.7502320395	302353937.0384933
1233363.4979137748	301747170.1955361
1256316.6024741214	301129111.3183863
1279696.8682159416	300499550.26036656
1303512.244681509	299858272.96393347
1327770.8293554292	299205061.3878965
1352480.870417874	298539693.4332818
1377650.769549055	297861942.86781514
1403289.084785873	297171579.24900204
1429404.533431761	296468367.8457732
1456005.9950206485	295752069.5586748
1483102.5143361029	295022440.8385709
1510703.3044866556	294279233.6038352
1538817.7500383463	293522195.156
1567455.410205595	292751068.0938359
1596626.022101425	291965590.2258332
1626339.5040481905	291165494.48105305
1656605.9589499151	290350508.81832147
1687435.6777273756	289520356.1337318
1718839.1428171457	288674754.1664266
1750827.0317357269	287813415.4026254
1783410.2207100063	286936046.97786814
1816599.7883753285	286042350.5774365
1850407.019542302	285132022.3349251
1884843.4090337954	284204752.72892284
1919920.6655932867	283260226.4777723
1955650.715865947	282298122.4323713
1992045.7084538713	281318113.46697736
2029118.018046678	280319866.3679831
2066880.2496290822	278516357.5109274
2105345.242766708	275892279.16549593
2144526.0759716653	273219366.27555394
2184436.0711494284	270496710.0219174
2225088.7981283693	267723384.67212477
2266498.079273693	264898447.2656746
2308677.994187172	262020937.29341015
2351642.884494346	259089876.37093693
2395407.3587208795	256104267.9059583
2439986.29725955	253063096.7594277
2485394.8574297987	249965328.90038663
2531648.478631358	246809911.05438477
2578762.8875937983	243595770.3453563
2626754.1037238385	240321813.9308269
2675638.4445520453	236986928.6303402
2725432.531281028	233589980.54696074
2776153.294436804	230129814.68173823
2827817.979625338	226605254.54099685
2880444.1533962977	223015101.7363105
2934049.7092157872	219358135.5770433
2988652.8735503824	215633112.6552976
3044272.212064306	211838766.42314282
3100926.6359319235	207973806.76197776
3158635.408267819	204036919.54387167
3217418.1506763715	200026766.1847522
3277294.849923382	195941983.18926784
3338285.8647317644	191781181.68718693
3400411.9327037027	187542946.96116793
3463694.1773717343	183225837.96573585
3528154.115380883	178828386.83731735
3593813.6638046256	174349098.3951463
3660695.147596906	169786449.63288835
3728821.30718283	165138889.20080388
3798215.306190736	160404836.87826702
3868900.7393279755	155582683.036481
3940901.6404034477	150670788.09118107
4014242.490499326	145667481.9451603
4088948.226294856	140571063.42042074
4165044.248545185	134673639.8406013
4242556.430717777	128596908.22741932
4321511.127789762	122407087.60492384
4401935.185208879	116102073.36740804
4483855.948021182	109679721.74209768
4567301.270168747	103137849.0602373
4652299.523960189	96474231.01462956
4738879.609717651	89686601.90333855
4827070.965603188	82772653.85933007
4916903.577628021	75730036.06577453
5008407.989848212	68556353.95673586
5101615.314749834	61249168.40300384
5196557.243827658	53805994.882755645
5293266.058360566	46224302.63679438
5391774.640387494	38501513.808067195
5492116.483887789	30635002.565157004
5594325.706169377	22622094.209483214
5698437.059469136	14460064.265866052
5804485.942768984	6146137.556179196
5912508.413831869	-2322512.744237441
6022541.201461928	-10948766.067738175
6134621.717992506	-19735555.433396835
6248788.072006888	-26217085.507805064
6365079.081295578	-32607529.45981884
6483534.286054714	-39116900.66115033
6604193.962330305	-45747412.368148476
6727099.135712337	-52501319.02623433
6852291.595284058	-59380917.03644474
6979813.907830667	-66388545.53623062
7109709.432312424	-73526587.19478586
7242022.334607315	-80797469.0231888
7376797.602527731	-88203663.19960155
7514081.061116962	-95747687.90984543
7653919.388230155	-103432108.20360875
7796360.130405221	-111259536.86658737
7941451.71902934	-119232635.3088695
8089243.486805938	-127354114.46983194
8239785.684528511	-133547611.39364961
8393129.498166373	-135396492.34643695
8549327.066268368	-137279781.28835347
8708431.497690724	-139198118.5579323
8870496.889654404	-141152156.4105143
9035578.34613892	-143142559.2400241
9203731.99661823	-145170003.8048702
9375015.015145289	-147235179.45804968
9549485.639791965	-149338788.38153684
9727203.192450536	-151481545.82503173
9908228.099003788	-153664180.349153
10092621.909870485	-155887434.07315677
10280447.320933098	-156507486.35088217
10471768.194855202	-151196313.91631976
10666649.582795387	-145786299.65902248
10865157.746525373	-140275604.11585057
11067360.180959744	-134662353.59094194
11273325.63710487	-128944639.51863723
11483124.145435112	-123120517.81454362
11696827.039703846	-117188008.21452782
11914506.981197748	-111145093.6014037
12136237.983442418	-104989719.31909065
12362095.43736769	-97353535.22454001
12592156.13694151	-86782763.5179879
12826498.3052806	-76015267.95129693
13065201.621247198	-65047387.4599562
13308347.24654076	-53875392.84641983
13556017.853293689	-42495485.51214525
13808297.652180923	-30903796.166020557
14065272.421052365	-19096383.508769244
14327029.534098294	-7069232.892864787
14593657.991557576	2931309.354004932
14865248.449978571	13049129.638612427
15141893.25304352	23355244.280323975
15423686.462966274	33853157.46916485
15710723.89247449	44546438.60873267
16003103.137387017	55438723.52983468
16300923.60979741	66533715.7267046
16604286.571875297	72035078.22795305
16913295.17029647	75460963.66645736
17228054.471313924	78950605.41590711
17548671.49648152	82505189.99209788
17875255.259042356	86125925.99208504
18207916.800994623	89814044.50512178
18546769.230846975	90505003.57352737
18891927.762076642	85233612.41763085
19243509.75230332	79864119.77536379
19601634.743191857	74394699.96137345
19966424.501097932	68823493.31399031
20338003.0584698	63148605.562925264
20716496.75602067	54546425.55685272
21102034.285685964	44091475.54750748
21494746.734379806	33441957.139517177
