# Frequency (Hz)	Imaginary Part (Ohm)
1000.0	1127336167.3520265
1018.6101701559753	1123491428.7896929
1037.566678745186	1119575138.9885087
1056.875971184804	1115585966.3677444
1076.544612842316	1111522554.5657263
1096.5792912678098	1107383521.9786587
1116.9868184678226	1103167461.2908647
1137.7741332214914	1098872938.9962828
1158.9483034398106	1094498494.9110603
1180.5165285688056	1090042641.6770737
1202.4861420374123	1085503864.256213
1224.8646137509306	1080880619.4152498
1247.6595526308697	1076171335.2011235
1270.8787092020582	1072234570.2806455
1294.529978227916	1069050320.1357368
1318.6214013947485	1065806810.5538125
1343.1611700460153	1062502938.706666
1368.1576279674719	1059137581.2422705
1393.6192742241421	1055709593.9028268
1419.5547660501015	1052217811.1357034
1445.9729217920196	1048661045.6971364
1472.8827239075017	1045038088.2485528
1500.2933220192183	1041347706.945383
1528.2140360258693	1037588647.0182211
1556.654359271062	1033759630.3461877
1585.6239617711371	1029882455.082113
1615.1326935030913	1026842380.6820958
1645.1905877536624	1023745729.9802073
1675.8078645307671	1020591450.0818433
1706.994934038408	1017378468.4978507
1738.7624002162504	1014105692.7798725
1771.1210643450886	1010772010.1489
1804.0819287193829	1007376287.1169192
1837.6562003881704	1003917369.1015109
1871.8552949655793	1000394080.0332799
1906.690840512252	996805221.9559807
1942.1746814890264	993149574.619197
1978.3188827841643	989425895.063446
2015.1357338155585	985880079.6733503
2052.6377527092523	982482920.2328867
2090.83769055575	979022539.077189
2129.748535745521	975497759.639379
2169.3835183851843	971907383.4564692
2209.756114795903	968250189.7618715
2250.880052095462	964524935.0703241
2292.7693128656488	960730352.7550926
2335.438139906479	956865152.6173036
2378.9010410788933	952928020.4472636
2423.1727942376006	948917617.5776126
2468.2684522556924	944832580.4281634
2514.2033481427966	940683517.2821385
2560.9931002584594	936687300.9917108
2608.6536176225477	932616714.4361384
2657.201105324507	928470373.5721319
2706.652070033241	924246868.5991218
2757.0233256095826	919944763.4799095
2808.3319988231724	915562595.4523995
2860.595535175742	911098874.5322456
2913.8317048327885	906552083.0062388
2968.058608665602	901920674.9162695
3023.2946844057765	897203075.5336838
3079.5587129142264	892397680.8238605
3136.8698245668766	887502856.9008209
3195.2475057592137	882680776.3236507
3254.711605531848	877897564.7084267
3315.282342319423	873025336.7111514
3376.9803108250912	868062435.7218076
3439.8264890229248	863007174.3005852
3503.8422452906757	857857833.6041307
3569.0493456752297	852612662.8011243
3635.4699612933177	847269878.4769768
3703.126675869927	841827664.02745
3772.0424934169973	836284169.0409925
3842.240846055061	830637508.6695777
3913.745601980384	824885762.9878385
3986.581073580439	819073163.1627901
4060.7720257003652	813727310.8618668
4136.343684063274	808281971.3399951
4213.321743847289	802735293.1230639
4291.732378422157	797085390.2807158
4371.602248248502	791330341.7851065
4452.958509942656	785468190.8577379
4535.828825510186	779496944.3041314
4620.241371751313	773414571.8361183
4706.224849841282	767219005.381524
4793.808495089107	760908138.380997
4883.02208687788	754479825.0717582
4973.895958790063	747931879.7580189
5066.461008921268	741928804.7587404
5160.7487103859075	736286474.9719188
5256.791122018419	730539140.4676881
5354.620899273607	724684847.0903902
5454.271305329837	718721604.3171977
5555.7762223988775	712647384.581315
5659.170163246243	706460122.5825827
5764.488282925873	700157714.5852545
5871.766390733255	693738017.7027032
5981.040962380944	687198849.1688179
6092.349152400711	680537985.5958388
6205.7288067765	673753162.2183807
6321.218475812449	667004692.6579517
6438.857427240419	661607789.8074296
6558.685659571435	656110449.6765436
6680.743915695614	650510803.1104172
6805.073696735207	644806946.1688818
6931.7172761554075	638996939.4791187
7060.717714137772	633078807.5762521
7192.118872221193	627050538.2316673
7325.9654282152305	620910081.768834
7462.302891391108	614655350.3663921
7601.17761795533	608284217.3482705
7742.63682681127	601794516.4605956
7886.728615614156	595184041.1351393
8033.501977124734	589616908.2457762
8183.006815867389	584690906.4354272
8335.293965098195	579673230.8931987
8490.415204088747	574562175.5553421
8648.423275731726	569356002.6079713
8809.37190447399	564052941.8961886
8973.31581458352	558651190.3222122
9140.310748756232	553148911.2323036
9310.413487069076	547544233.7922862
9483.681866285928	541835252.3514405
9660.174799522645	536020025.79456383
9839.952296278227	530096576.881968
10023.075482838643	524296793.9735965
10209.606623060476	520041575.5916265
10399.609139541202	515707166.87151784
10593.147635183701	511292094.0676023
10790.287915161836	506794856.00755495
10991.097009294961	502213923.58197814
11195.643194838794	497547739.2244878
11403.996019700331	492794716.38212585
11616.226326085018	487953238.9759125
11832.40627458378	483021660.8513631
12052.609368708414	477998305.2187783
12276.910479883603	472881464.08311665
12505.385872903913	467669397.6632598
12738.113231864785	463418059.5226878
12975.171686575868	459694623.33150715
13216.641839466038	455901893.3592438
13462.60579298911	452038580.0368404
13713.147177539457	448103369.7961418
13968.351179887397	444094924.6232642
14228.30457214352	440011881.6036585
14493.095741262152	435852852.45870376
14762.81471909391	431616423.0736772
15037.553212997384	427301153.016942
15317.404637020798	422905575.05018204
15602.46414366368	418428194.62952685
15892.828656229764	414075968.9676267
16188.596901781992	410835085.1197418
16489.86944471065	407533887.87199223
16796.74872092653	404171254.78174376
17109.339072690134	400746042.5175136
17427.746784089173	397257086.4702258
17752.08011717636	393703200.3572309
18082.44934877952	390083175.8189584
18418.96680799711	386395782.0080601
18761.746914391195	382639765.17090875
19110.90621689136	378813848.22130936
19466.563433422634	374916730.3062748
19828.839491270715	370947086.36372405
20197.857568198782	367691079.34743303
20573.743134329117	364779376.9389398
20956.623994804308	361813487.2531809
21346.630333242454	358792401.8557059
21743.8947560008	355715093.54492855
22148.552337263594	352580516.0028652
22560.74066496859	349387603.43937695
22980.599887588487	346135270.2297891
23408.272761782944	342822410.54576635
23843.904700937204	339447897.97932154
24287.643824604504	336010585.15982175
24739.641008868115	332509303.3638717
25200.049937640895	329125281.5265416
25669.02715491952	326546232.74860436
26146.73211801092	323919187.43406945
26633.327251749808	321243252.35922354
27128.978003724646	318517517.67730844
27633.85290053167	315741056.60916287
28148.123605075813	312912925.1281073
28671.9649749377	310032161.63896614
29205.555121827452	307097786.651113
29749.075472144435	304108802.4454341
30302.71082866393	301064192.73509467
30866.649433372746	297962922.3199866
31441.083031472648	294803936.734754
32026.206936576502	292231907.34662664
32622.220097116733	289908249.7826029
33229.325163989684	287541348.55592906
33847.72855945983	285130398.8946839
34477.64054734464	282674581.05000573
35119.275304507275	280173060.017366
35772.850993678774	277624985.25265974
36438.58983763541	275029490.3830128
37116.71819475767	272385692.9122022
37807.46663599349	269692693.9206021
38511.07002325569	266949577.7595385
39227.76758927724	264155411.73995963
39957.803018952654	261476706.44295645
40701.42453219439	259424202.7078537
41458.88496832911	257333501.5289952
42230.44187206672	255203892.0454528
43016.357581068	253034650.16705573
43816.89931514195	250825038.3281924
44632.33926710398	248574305.23702922
45462.95469532399	246281685.62006378
46309.02801799737	243946399.96192372
47170.84690917022	241567654.24032256
48048.70439655134	239144639.65608487
48942.898961145314	236676532.3581441
49853.73463873893	234162493.1634255
50781.5211232767	232136052.6681948
51726.57387216025	230289524.89703488
52689.21421350677	228408632.92985612
53669.76945540476	226492737.2431231
54668.57299720181	224541186.41165894
55685.96444286409	222553316.88715318
56722.28971644549	220528452.7725483
57777.90117970507	218465905.59222806
58853.15775191451	216364974.05792737
59948.42503189409	214224943.83028725
61064.07542232036	212045087.2759719
62200.48825634718	209824663.2202648
63358.04992658254	207712588.03294215
64537.15401646702	206081520.28619775
65738.20143409586	204420098.0911505
66961.60054853215	202727756.5463525
68207.76732865692	201003920.2374437
69477.1254846024	199248003.04150516
70770.10661181889	197459407.9277704
72087.15033782135	195637526.75462893
73428.70447166757	193781740.06285128
74795.2251562183	191891416.86496624
76187.17702322999	189965914.43071902
77605.0333513357	188004578.06853473
79049.2762269642	186006740.90291706
80520.3967082547	184411057.27669606
82018.89499202212	182943498.00307536
83545.28058382872	181448627.2016588
85100.07247122246	179925936.60026667
86683.79930019774	178374908.4676877
88296.99955494083	176795015.43764478
89940.22174092053	175185720.32948428
91614.0245713852	173546475.96552995
93318.97715733238	171876724.9850352
95055.6592010119	170175899.65467533
96824.66119303113	168443421.6755119
98626.5846131283	166678701.98636454
100462.04213468131	165013286.1220494
102331.6578330245	163716987.96701297
104236.06739764012	162396565.48273847
106175.9183482999	161051569.71135384
108151.87025522892	159681543.3398045
110164.59496336569	158286020.54436263
112214.77682079803	156864526.83224106
114303.11291144787	155416578.8802612
116430.31329208757	153941684.37051806
118597.10123376705	152439341.8229863
120804.21346773289	150909040.42501256
123052.40043592616	149350259.8576326
125342.42654613995	147762470.1186579
127675.07043192645	146506064.7311977
130051.12521734099	145339739.681443
132471.39878661174	144151709.12405533
134936.71405883064	142941569.11584413
137447.90926775365	141708908.1961676
140005.8382468096	140453307.24703124
142611.37071941298	139174339.35058334
145265.39259467812	137871569.64395863
147968.80626863963	136544555.1714196
150722.53093107554	135192844.73374718
153527.5028780421	133815978.73482807
156384.6758302248	132413489.02538688
159295.0212572123	131100398.40061934
162259.5287078087	130070192.18924975
165279.2061464897	129020813.6649907
168355.08029612005	127951906.02783743
171488.19698705408	126863105.83767545
174679.62151272458	125754042.8907088
177930.43899185772	124624340.09358548
181241.75473742394	123473613.33518182
184614.69463245457	122301471.35600154
188050.40551285836	121107515.61514145
191550.05555735278	119891340.15478541
195114.83468466165	118652531.46217261
198745.9549580986	117390668.32899944
202444.65099768018	116401509.1242832
206212.18039991445	115474604.63228853
210049.82416539153	114530450.28997964
213958.88713434216	113568725.07470687
217940.6984302958	112589101.98953448
221996.61191199525	111591247.95205851
226128.00663372796	110574823.68115407
230336.28731421314	109539483.58161755
234622.88481422624	108484875.62665936
238989.25662310526	107410641.23821142
243436.8873543108	106316415.16500731
247967.289250216	105201825.35839152
252582.00269627848	104166606.21822016
257282.5967447932	103347884.27010687
262070.66964838552	102513925.76722865
266947.8494034318	101664447.15470901
271915.7943036019	100799159.60066636
276976.1935036891	99917768.89800921
282130.76759394706	99019975.36440171
287381.2691851069	98105473.74036875
292729.4835042813	97173953.08550483
298177.22900196735	96225096.67274986
303726.35797033116	95258581.88070007
309378.7571730137	94274080.08391194
315136.34848664823	93271256.5411666
321001.08955431683	92492575.36989455
326974.9744511768	91755953.22974753
333060.03436245886	91005622.42623179
339258.33827409917	90241327.83878937
345571.9936762143	89462809.59902525
352003.14727966755	88669803.00234976
358553.9857459817	87862038.41797517
365226.7364308176	87039241.19723947
372023.6681413066	86201131.58022203
378947.09190746717	85347424.60062243
385999.3617679763	84477829.98886932
393182.87557057705	83592052.0734246
400500.07578736113	82775962.1635835
407953.4503452449	82125316.93444277
415545.53347188793	81462563.0868765
423278.90655735444	80787475.27743563
431156.19903182285	80099823.96899068
439180.0892596086	79399375.35268767
447353.3054498463	78685891.26844975
455678.6265841069	77959129.12400052
464158.8833612772	77218841.81238031
472796.9591600391	76464777.62792636
481595.7910192351	75696680.18069132
490558.37063650455	74914288.30926682
499687.7453854889	74117335.9919864
508987.01935196744	73504404.69286261
518459.3543892913	72919006.95166491
528107.971193433	72322714.85889463
537936.1503980698	71715325.66881524
547947.2336900292	71096632.86255752
558144.6249454955	70466426.0779012
568531.7913873753	69824491.03774881
579112.2647641759	69170609.47727019
589889.6425508494	68504559.06968921
600867.5891719693	67826113.35069062
612049.837247669	67135041.64142002
623440.1888627864	66431108.97004976
635042.5168595962	65787809.13895047
646860.7661546321	65270739.23770292
658898.9550799957	64744046.577610575
671161.1767496273	64207552.077494115
683651.6004510239	63661073.32344263
696374.4730628222	63104424.50679168
709334.1204987989	62537416.36094574
722534.9491787221	61959856.097025715
735981.4475265756	61371547.33831893
749678.1874966876	60772290.053508244
763629.8261282241	60161880.48866008
777841.1071286482	59540111.097945265
792316.8624866261	58906770.47307139
807062.014114949	58424352.72264051
822081.5755240541	57959136.272650376
837380.653526649	57485262.065366626
852964.4499741016	57002568.978452794
868838.2635251193	56510892.89105833
885007.4914473438	56010066.62801588
901477.6314524917	55499919.90299964
918254.2835656282	54980279.260626316
935343.1520292377	54450968.01747847
952750.04724273	53911806.202030115
970480.8877380306	53362610.49345473
988541.7021919574	52803194.15929382
1006938.6314760271	52296134.065397836
1025677.9307444209	51885218.59423077
1044765.9715608052	51466655.916225515
1064209.2440647245	51040303.71556171
1084014.359178331	50606017.02789715
1104188.0508541602	50163648.191078685
1124737.1783647507	49713046.79493533
1145668.7286348727	49254059.630137175
1166989.8186171474	48786530.636102766
1188707.6977119034	48310300.84793653
1210829.7502320395	47825208.34237917
1233363.4979137748	47331088.18275201
1256316.6024741214	46827772.36287663
1279696.8682159416	46448112.84829103
1303512.244681509	46078405.86823857
1327770.8293554292	45701818.57837946
1352480.870417874	45318222.93497751
1377650.769549055	44927488.51138071
1403289.084785873	44529482.453675024
1429404.533431761	44124069.43551233
1456005.9950206485	43711111.61209817
1483102.5143361029	43290468.573323034
1510703.3044866556	42861997.29602133
1538817.7500383463	42425552.09534212
1567455.410205595	41980984.57521452
1596626.022101425	41581337.80216233
1626339.5040481905	41254784.11357645
1656605.9589499151	40922153.205280885
1687435.6777273756	40583331.97918284
1718839.1428171457	40238205.232414655
1750827.0317357269	39886655.6181637
1783410.2207100063	39528563.605773345
1816599.7883753285	39163807.44010082
1850407.019542302	38792263.10011974
1884843.4090337954	38413804.25675112
1919920.6655932867	38028302.22991034
1955650.715865947	37635625.94475465
1992045.7084538713	37235641.88711592
2029118.018046678	36936880.333712816
2066880.2496290822	36643075.20261828
2105345.242766708	36343802.308041334
2144526.0759716653	36038959.893973306
2184436.0711494284	35728444.31070865
2225088.7981283693	35412149.979603395
2266498.079273693	35089969.35717689
2308677.994187172	34761792.89854604
2351642.884494346	34427509.02017896
2395407.3587208795	34087004.06195499
2439986.29725955	33740162.24851955
2485394.8574297987	33386865.64991888
2531648.478631358	33071899.270210896
2578762.8875937983	32812388.147497337
2626754.1037238385	32548047.47863266
2675638.4445520453	32278787.384941284
2725432.531281028	32004516.3150901
2776153.294436804	31725141.0139601
2827817.979625338	31440566.49093875
2880444.1533962977	31150695.98762186
2934049.7092157872	30855430.944915064
2988652.8735503824	30554670.969522398
3044272.212064306	30248313.799811523
3100926.6359319235	29936255.271043897
3158635.408267819	29618389.279957213
3217418.1506763715	29383310.14793477
3277294.849923382	29149824.34417711
3338285.8647317644	28911993.32988248
3400411.9327037027	28669736.23994351
3463694.1773717343	28422970.70433924
3528154.115380883	28171612.82012877
3593813.6638046256	27915577.122923095
3660695.147596906	27654776.557826392
3728821.30718283	27389122.44983652
3798215.306190736	27118524.473694265
3868900.7393279755	26842890.62317217
3940901.6404034477	26562127.179791115
4014242.490499326	26313915.122831803
4088948.226294856	26107682.727998223
4165044.248545185	25897612.31320507
4242556.430717777	25683632.4522479
4321511.127789762	25465670.389668364
4401935.185208879	25243652.016016655
4483855.948021182	25017501.84265358
4567301.270168747	24787142.97608337
4652299.523960189	24552497.09180938
4738879.609717651	24313484.40770264
4827070.965603188	24070023.65687522
4916903.577628021	23822032.060048647
5008407.989848212	23569425.29740783
5101615.314749834	23384472.10630659
5196557.243827658	23198921.992383856
5293266.058360566	23009918.75926855
5391774.640387494	22817398.14382497
5492116.483887789	22621294.68696941
5594325.706169377	22421541.711413614
5698437.059469136	22218071.298993565
5804485.942768984	22010814.26757665
5912508.413831869	21799700.14753909
6022541.201461928	21584657.157805253
6134621.717992506	21365612.181441642
6248788.072006888	21142490.740796093
6365079.081295578	20946898.300570533
6483534.286054714	20783006.402782988
6604193.962330305	20616064.448890395
6727099.135712337	20446015.67682971
6852291.595284058	20272802.26818616
6979813.907830667	20096365.32853444
7109709.432312424	19916644.86741404
7242022.334607315	19733579.777931634
7376797.602527731	19547107.815984365
7514081.061116962	19357165.579095945
7653919.388230155	19163688.484859195
7796360.130405221	18966610.748977467
7941451.71902934	18765865.36289697
8089243.486805938	18620363.94083749
8239785.684528511	18472908.19889998
8393129.498166373	18322708.280514527
8549327.066268368	18169713.116090532
8708431.497690724	18013870.685623538
8870496.889654404	17855128.00100805
9035578.34613892	17693431.088020846
9203731.99661823	17528724.967969242
9375015.015145289	17360953.638997763
9549485.639791965	17190060.057046827
9727203.192450536	17015986.116457224
9908228.099003788	16838672.630213525
10092621.909870485	16684555.319425106
10280447.320933098	16554311.279965548
10471768.194855202	16421643.376769848
10666649.582795387	16286506.501321439
10865157.746525373	16148854.705626586
11067360.180959744	16008641.186591566
11273325.63710487	15865818.270109145
11483124.145435112	15720337.394848816
11696827.039703846	15572149.095745452
11914506.981197748	15421202.98718065
12136237.983442418	15267447.74585106
12362095.43736769	15110831.093317967
12592156.13694151	14951887.497496286
12826498.3052806	14836846.15191292
13065201.621247198	14719663.86731327
13308347.24654076	14600300.800457941
13556017.853293689	14478716.36661811
13808297.652180923	14354869.225776203
14065272.421052365	14228717.268569896
14327029.534098294	14100217.601974469
14593657.991557576	13969326.534718702
14865248.449978571	13835999.562429423
15141893.25304352	13700191.352499459
15423686.462966274	13561855.72867412
15710723.89247449	13420945.655350756
16003103.137387017	13299517.198750807
16300923.60979741	13196012.986323703
16604286.571875297	13090582.542891474
16913295.17029647	12983190.02096735
17228054.471313924	12873798.905936742
17548671.49648152	12762372.003641848
17875255.259042356	12648871.427735303
18207916.800994623	12533258.58679834
18546769.230846975	12415494.171219321
18891927.762076642	12295538.139828062
19243509.75230332	12173349.70628136
19601634.743191857	12048887.325195273
19966424.501097932	11923509.523910293
20338003.0584698	11832086.827180626
20716496.75602067	11738962.738508698
21102034.285685964	11644105.594700959
21494746.734379806	11547483.143306453
21894767.628566206	11449062.531650612
