# Frequency (Hz)	Real Part (Ohm)
1000.0	0.0014412591984000007
1018.6101701559753	0.001459275020296808
1037.566678745186	0.0014776261197046161
1056.875971184804	0.001496318736194952
1076.5446128423157	0.0015153592254588332
1096.5792912678098	0.0015347540614677687
1116.9868184678226	0.0015545098386749777
1137.7741332214914	0.0015746332742575773
1158.9483034398106	0.00159513121040049
1180.5165285688054	0.0016160106166228706
1202.4861420374123	0.0016372785921478044
1224.8646137509306	0.0016589423683161298
1247.6595526308697	0.0016810093110451703
1270.8787092020582	0.0017025365743779134
1294.529978227916	0.0017235521009475844
1318.6214013947485	0.0017449587300426336
1343.1611700460153	0.0017667637401476077
1368.1576279674719	0.0017889745452008888
1393.619274224142	0.0018115986971155116
1419.5547660501015	0.001834643888346902
1445.9729217920194	0.0018581179545083836
1472.882723907502	0.0018820288770353836
1500.2933220192183	0.001906384785899198
1528.2140360258693	0.0019311939623712705
1556.654359271062	0.001956464841838919
1585.6239617711371	0.0019821512545537333
1615.132693503091	0.002006160170077245
1645.1905877536624	0.0020306158956039082
1675.807864530767	0.0020555267463439096
1706.9949340384078	0.0020809011922549156
1738.7624002162504	0.002106747860921938
1771.1210643450886	0.0021330755404908182
1804.0819287193826	0.002159893182656287
1837.6562003881704	0.0021872099057056366
1871.8552949655793	0.0022150349976190397
1906.690840512252	0.002243377919227557
1942.1746814890264	0.002272248307429926
1978.3188827841643	0.00230165597846921
2015.1357338155585	0.002330212621356777
2052.6377527092523	0.002358086369035596
2090.8376905557498	0.002386478851901602
2129.748535745521	0.0024153997237048954
2169.3835183851843	0.0024448588178535052
2209.756114795903	0.0024748661507568645
2250.880052095462	0.0025054319252314806
2292.7693128656488	0.002536566533970018
2335.438139906479	0.0025682805630749222
2378.9010410788933	0.002600584795657797
2423.1727942376006	0.0026334902155057995
2468.2684522556924	0.0026670080108162257
2514.2033481427966	0.002700997093954533
2560.9931002584594	0.002732694653171533
2608.6536176225477	0.002764982109359087
2657.2011053245064	0.0027978704406001974
2706.652070033241	0.0028313708292818486
2757.0233256095826	0.002865494665897159
2808.3319988231724	0.002900253552918255
2860.5955351757416	0.002935659308741244
2913.831704832789	0.002971723971704603
2968.0586086656026	0.003008459804182324
3023.2946844057765	0.0030458792967532782
3079.5587129142264	0.0030839951724481295
3136.8698245668766	0.0031228203910753055
3195.2475057592133	0.003160346082735548
3254.711605531848	0.0031969828480776993
3315.282342319423	0.003234301429856834
3376.9803108250912	0.003272314516792858
3439.8264890229243	0.003311035033744914
3503.8422452906757	0.003350476146105979
3569.0493456752292	0.0033906512642792198
3635.4699612933177	0.003431574048237702
3703.126675869927	0.0034732584121689104
3772.0424934169973	0.00351571852920572
3842.240846055061	0.00355896883624543
3913.745601980384	0.0036030240388584445
3986.581073580439	0.00364758537645867
4060.7720257003657	0.003689070660125975
4136.343684063274	0.0037313279919812935
4213.321743847289	0.003774371739972779
4291.732378422157	0.003818216539438536
4371.602248248501	0.0038628772980828048
4452.958509942655	0.0039083692010447426
4535.828825510186	0.003954707716061516
4620.241371751313	0.00400190859872753
4706.224849841281	0.00404998789785147
4793.808495089106	0.004098961960913085
4883.02208687788	0.004148847439621507
4973.895958790063	0.004199661295577006
5066.461008921268	0.0042485445325463
5160.7487103859075	0.004296299283313923
5256.791122018419	0.004344942758119084
5354.620899273607	0.004394491496267354
5454.271305329836	0.0044449623448635745
5555.7762223988775	0.0044963724645400854
5659.170163246242	0.004548739335291514
5764.488282925873	0.004602080762418166
5871.766390733255	0.004656414882580009
5981.040962380945	0.004711760169963338
6092.349152400711	0.004768135442562198
6205.7288067765	0.004825559868576715
6321.218475812449	0.004883487188277575
6438.8574272404185	0.004937353263841008
6558.685659571435	0.004992221796236318
6680.743915695614	0.005048111441355709
6805.073696735206	0.005105041202280726
6931.717276155407	0.005163030435743502
7060.717714137772	0.00522209885870823
7192.118872221193	0.005282266555075183
7325.96542821523	0.0053435539825094115
7462.302891391108	0.005405981979396616
7601.17761795533	0.005469571771928388
7742.636826811269	0.005534344981319356
7886.728615614156	0.0056003236311586435
8033.501977124735	0.00566350138229911
8183.00681586739	0.005725282467201953
8335.293965098195	0.005788213308607262
8490.415204088747	0.005852315303679175
8648.423275731726	0.005917610247786721
8809.37190447399	0.005984120341914429
8973.31581458352	0.006051868200210944
9140.310748756232	0.006120876857678065
9310.413487069076	0.00619116977800288
9483.681866285926	0.006262770861535704
9660.174799522645	0.006335704453416423
9839.952296278227	0.006409995351852129
10023.075482838643	0.006484724711455878
10209.606623060476	0.006554174779266919
10399.609139541202	0.006624917324657259
10593.1476351837	0.006696976400854579
10790.287915161836	0.006770376508721216
10991.097009294961	0.006845142605084718
11195.643194838794	0.006921300111223447
11403.99601970033	0.006998874921510068
11616.22632608502	0.0070778934122159385
11832.40627458378	0.007158382450479316
12052.609368708414	0.007240369403440463
12276.910479883603	0.0073238821475468
12505.385872903913	0.007408949078031134
12738.113231864783	0.007490035747645526
12975.171686575868	0.007569438681253417
13216.641839466038	0.007650319316966631
13462.60579298911	0.007732705155072801
13713.147177539455	0.00781662420764456
13968.351179887397	0.007902105008064009
14228.30457214352	0.007989176620724328
14493.09574126215	0.008077868650912015
14762.81471909391	0.008168211254872984
15037.553212997384	0.00826023515006599
15317.404637020798	0.008353971625606952
15602.46414366368	0.008449452552907554
15892.828656229764	0.00854521607568661
16188.596901781993	0.008634215446255979
16489.86944471065	0.00872487111025542
16796.74872092653	0.008817213891587487
17109.339072690134	0.008911275187792821
17427.746784089173	0.009007086980725627
17752.08011717636	0.009104681847427874
18082.44934877952	0.009204092971205788
18418.96680799711	0.009305354152912606
18761.746914391195	0.009408499822441184
19110.90621689136	0.009513565050430536
19466.56343342263	0.009620585560190261
19828.83949127071	0.009729597739846786
20197.857568198782	0.009833055295964257
20573.743134329114	0.009934539232729647
20956.623994804308	0.010037911802826342
21346.630333242454	0.010143208154042002
21743.8947560008	0.01025046408827058
22148.55233726359	0.010359716073685396
22560.74066496859	0.01047100125713865
22980.599887588487	0.010584357476791812
23408.272761782944	0.010699823274980966
23843.904700937208	0.010817437911321608
24287.643824604504	0.010937241376057382
24739.64100886812	0.011059274403657162
25200.049937640895	0.011181303827473331
25669.027154919517	0.011294781426963989
26146.732118010917	0.011410370863890037
26633.327251749808	0.01152811143990551
27128.978003724646	0.011648043188074907
27633.852900531667	0.011770206886484825
28148.123605075813	0.011894644072109056
28671.964974937695	0.012021397054931469
29205.55512182745	0.012150508932331982
29749.075472144435	0.012282023603740096
30302.71082866393	0.012415985785561091
30866.649433372742	0.012552441026380267
31441.08303147265	0.012691435722449755
32026.206936576502	0.012822800065446083
32622.220097116733	0.012951922009611826
33229.325163989684	0.013083446935129328
33847.72855945983	0.013217419561890502
34477.640547344636	0.013353885442031926
35119.275304507275	0.013492890975423263
35772.850993678774	0.013634483425443652
36438.58983763541	0.013778710935051692
37116.71819475767	0.013925622543154739
37807.466635993485	0.014075268201282456
38511.070023255685	0.014227698790571038
39227.76758927723	0.014382966139063267
39957.803018952654	0.014537763378885566
40701.42453219439	0.014681878188190552
41458.88496832911	0.014828674998618686
42230.441872066716	0.014978203722667238
43016.35758106799	0.015130515201713556
43816.89931514194	0.015285661223301616
44632.33926710397	0.015443694538750458
45462.95469532399	0.015604668881090114
46309.02801799736	0.01576863898333146
47170.84690917023	0.01593566059707602
48048.704396551344	0.01610579051147208
48942.89896114532	0.016279086572523676
49853.73463873894	0.01645560770275879
50781.5211232767	0.016621786715229334
51726.57387216024	0.016785508752563835
52689.21421350677	0.016952277684871404
53669.76945540476	0.017122150215385937
54668.57299720181	0.017295184102598175
55685.96444286408	0.017471438179894185
56722.28971644549	0.01765097237555938
57777.90117970507	0.01783384773315468
58853.1577519145	0.018020126432272177
59948.42503189408	0.0182098718096767
61064.07542232036	0.018403148380841013
62200.48825634718	0.018600021861881883
63358.04992658254	0.018795713210542495
64537.15401646702	0.01897819996580774
65738.20143409586	0.019164082830639695
66961.60054853215	0.019353425007215222
68207.76732865692	0.019546290873914563
69477.1254846024	0.019742746007210436
70770.10661181889	0.019942857203964964
72087.15033782135	0.020146692504141202
73428.70447166759	0.020354321213937515
74795.22515621828	0.020565813929352427
76187.17702322999	0.02078124256018794
77605.0333513357	0.021000680354499757
79049.2762269642	0.021224201923502387
80520.39670825469	0.02143385824123951
82018.8949920221	0.02164094123123414
83545.28058382872	0.021851878070908968
85100.07247122246	0.02206674048106231
86683.79930019773	0.02228560151722871
88296.99955494082	0.022508535594518687
89940.22174092053	0.022735618512920632
91614.0245713852	0.022966927483073524
93318.9771573324	0.023202541152519556
95055.65920101192	0.023442539632445067
96824.66119303115	0.023687004524919158
98626.5846131283	0.023936018950639387
100462.04213468132	0.024182806623169347
102331.65783302448	0.024413413404659027
104236.06739764012	0.024648311817591338
106175.9183482999	0.024887581729957687
108151.87025522892	0.025131304496106406
110164.59496336569	0.025379562984404015
112214.77682079801	0.025632441605411508
114303.11291144785	0.025890026340584755
116430.31329208757	0.026152404771509152
118597.10123376705	0.02641966610967835
120804.21346773289	0.02669190122682696
123052.40043592616	0.02696920268582814
125342.42654613995	0.02725166477216582
127675.07043192645	0.027515694647938054
130051.12521734099	0.027777191379084056
132471.39878661174	0.028043554608891904
134936.71405883064	0.028314874903729772
137447.90926775365	0.028591244515421343
140005.8382468096	0.028872757412612436
142611.37071941295	0.029159509312721377
145265.39259467812	0.029451597714483864
147968.80626863963	0.029749121931103756
150722.53093107554	0.03005218312402044
153527.5028780421	0.030360884337305
156384.67583022476	0.03067533053269616
159295.0212572123	0.030986054628554784
162259.5287078087	0.03127708688155364
165279.2061464897	0.03157353529430171
168355.08029612005	0.03187550066245341
171488.19698705408	0.032183085657487724
174679.62151272455	0.032496394861617
177930.43899185772	0.03281553480334655
181241.75473742394	0.033140613993695306
184614.69463245454	0.03347174296309053
188050.40551285836	0.033809034298949846
191550.0555573528	0.03415260268396162
195114.83468466165	0.03450256493507867
198745.9549580986	0.0348590400432372
202444.65099768018	0.03519116356121955
206212.18039991445	0.03552102937898747
210049.8241653915	0.035857034055752635
213958.88713434213	0.03619929183672565
217940.6984302958	0.03654791909323979
221996.61191199525	0.03690303436231861
226128.00663372793	0.037264758386980006
230336.2873142131	0.03763321415728986
234622.88481422624	0.038008526952180134
238989.25662310526	0.038390824382045025
243436.8873543108	0.03878023643212986
247967.289250216	0.03917689550672764
252582.00269627848	0.03956772596262532
257282.59674479323	0.039934719638688866
262070.66964838552	0.04030854312951015
266947.8494034318	0.0406893235391038
271915.7943036019	0.04107719033691216
276976.1935036891	0.04147227540182557
282130.76759394706	0.041874713067023075
287381.2691851069	0.04228464016564713
292729.4835042813	0.04270219607732801
298177.22900196735	0.04312752277557503
303726.3579703311	0.04356076487604824
309378.75717301364	0.04400206968573002
315136.34848664823	0.044451587253010634
321001.08955431683	0.044869075599640235
326974.97445117676	0.04528492533655078
333060.03436245886	0.04570851410782447
339258.33827409917	0.04613998593820776
345571.9936762143	0.04657948753277202
352003.1472796675	0.047027168326794856
358553.9857459817	0.0474831805365701
365226.7364308175	0.04794767921116243
372023.6681413066	0.04842082228512613
378947.09190746717	0.0489027706322045
385999.36176797637	0.04939368812002828
393182.87557057705	0.04989374166583307
400500.07578736113	0.050385032553104496
407953.45034524484	0.050847591279992735
415545.53347188793	0.05131875830349553
423278.90655735444	0.05179869382547752
431156.19903182285	0.052287561029187565
439180.0892596086	0.05278552613474231
447353.3054498463	0.05329275845564314
455678.6265841068	0.0538094304563446
464158.8833612772	0.054335717810893844
472796.9591600391	0.054871799462662296
481595.79101923504	0.055417857685187616
490558.37063650455	0.05597407814414916
499687.7453854889	0.056540649960496306
508987.0193519675	0.05706522850477572
518459.3543892913	0.05758928142479427
528107.971193433	0.05812308705882502
537936.1503980698	0.05866682690653534
547947.2336900292	0.05922068584533216
558144.6249454955	0.059784852193222306
568531.7913873753	0.06035951777284305
579112.2647641759	0.06094487797668329
589889.6425508494	0.06154113183351951
600867.5891719692	0.06214848207608767
612049.837247669	0.06276713521001419
623440.1888627863	0.06339730158403074
635042.5168595961	0.06401465460547977
646860.7661546321	0.06459749847663886
658898.9550799957	0.06519118917141466
671161.1767496272	0.06579592855104016
683651.6004510238	0.0664119222334206
696374.4730628222	0.06703937966304507
709334.1204987989	0.06767851418220051
722534.9491787221	0.06832954310351005
735981.4475265755	0.0689926877838215
749678.1874966878	0.06966817369947173
763629.8261282243	0.07035623052295009
777841.1071286482	0.07105709220099031
792316.8624866261	0.07177099703411483
807062.0141149492	0.0724299752856889
822081.575524054	0.07309024217233073
837380.6535266489	0.07376279673808114
852964.4499741016	0.07444786765873947
868838.2635251193	0.07514568786580017
885007.4914473438	0.07585649462565246
901477.6314524917	0.07658052962025366
918254.2835656281	0.07731803902930326
935343.1520292377	0.07806927361394693
952750.0472427299	0.07883448880203787
970480.8877380306	0.07961394477498517
988541.7021919573	0.08040790655621798
1006938.6314760271	0.08118350380659602
1025677.9307444209	0.08191778944561073
1044765.9715608053	0.08266574026531066
1064209.2440647245	0.08342761057703349
1084014.359178331	0.08420365942489422
1104188.0508541602	0.084994150673863
1124737.1783647507	0.08579935309948183
1145668.7286348727	0.0866195404792516
1166989.8186171474	0.08745499168571856
1188707.6977119034	0.08830599078129489
1210829.7502320393	0.0891728271148424
1233363.4979137746	0.0900557954200547
1256316.6024741214	0.09095519591566945
1279696.8682159416	0.09178288671856842
1303512.2446815087	0.09261466559754415
1327770.829355429	0.09346192402298976
1352480.8704178738	0.09432495007189899
1377650.769549055	0.09520403718242762
1403289.084785873	0.09609948425366492
1429404.533431761	0.09701159574726365
1456005.9950206485	0.09794068179095945
1483102.514336103	0.09888705828401805
1510703.3044866556	0.09985104700464414
1538817.7500383465	0.10083297571938939
1567455.410205595	0.10183317829459716
1596626.022101425	0.10280745697020112
1626339.5040481905	0.10373244143381284
1656605.9589499151	0.10467464001568413
1687435.6777273756	0.1056343730734846
1718839.1428171454	0.10661196692679512
1750827.0317357269	0.10760775396805923
1783410.220710006	0.10862207277560024
1816599.7883753285	0.10965526822874212
1850407.019542302	0.11070769162507127
1884843.4090337954	0.11177970079988225
1919920.6655932867	0.11287166024784534
1955650.715865947	0.11398394124693821
1992045.7084538713	0.11511692198468573
2029118.0180466783	0.1161564253782304
2066880.2496290822	0.11720418707917593
2105345.242766708	0.11827144780365906
2144526.0759716653	0.1193585704318254
2184436.0711494284	0.1204659245970825
2225088.7981283693	0.12159388681177788
2266498.079273693	0.12274284059521828
2308677.994187172	0.12391317660407
2351642.884494346	0.12510529276518584
2395407.358720879	0.12631959441090598
2439986.29725955	0.12755649441687353
2485394.857429798	0.12881641334241806
2531648.478631358	0.13004017119661884
2578762.8875937983	0.13120530963852953
2626754.1037238385	0.13239213150509976
2675638.4445520453	0.1336010403285515
2725432.531281028	0.13483244715091078
2776153.2944368036	0.13608677066376546
2827817.979625338	0.13736443735062476
2880444.1533962977	0.13866588163192942
2934049.709215787	0.13999154601275757
2988652.873550383	0.14134188123328267
3044272.2120643063	0.14271734642202946
3100926.6359319235	0.1441184092519821
3158635.408267819	0.14554554609959972
3217418.1506763715	0.14685099125550094
3277294.849923382	0.14817075615336062
3338285.8647317644	0.14951508210053555
3400411.9327037027	0.15088442618233222
3463694.1773717343	0.15227925399049344
3528154.1153808828	0.15370003978150268
3593813.6638046256	0.1551472666378378
3660695.147596906	0.1566214266322237
3728821.30718283	0.15812302099494205
3798215.306190736	0.1596525602842562
3868900.7393279755	0.16121056456000443
3940901.6404034477	0.1627975635604281
4014242.490499326	0.16433460492461066
4088948.226294856	0.1658021940047627
4165044.248545185	0.16729709516741573
4242556.430717777	0.16881981669507198
4321511.127789762	0.17037087632945802
4401935.1852088785	0.1719508014475623
4483855.948021181	0.17356012924094774
4567301.270168747	0.1751994068984052
4652299.523960189	0.1768691917920008
4738879.609717651	0.17857005166658993
4827070.965603188	0.18030256483285687
4916903.577628021	0.18206732036394516
5008407.989848212	0.18386491829575105
5101615.314749833	0.18550427962355537
5196557.243827657	0.18716661221112316
5293266.058360566	0.18885988109100152
5391774.640387494	0.19058466199285384
5492116.483887789	0.19234154136077186
5594325.706169377	0.19413111655267012
5698437.0594691355	0.1959539960433965
5804485.942768984	0.19781079963161938
5912508.413831869	0.19970215865056487
6022541.201461928	0.20162871618267944
6134621.717992506	0.20359112727828163
6248788.072006888	0.20559005917828904
6365079.081295578	0.2075205190258718
6483534.286054714	0.20936902727155887
6604193.962330305	0.21125193657023325
6727099.135712336	0.21316988713134405
6852291.595284057	0.2151235310787478
6979813.907830667	0.21711353267243733
7109709.432312423	0.21914056853439554
7242022.334607315	0.22120532787865743
7376797.60252773	0.223308512745647
7514081.061116962	0.22545083824088072
7653919.388230155	0.22763303277811048
7796360.130405221	0.22985583832699114
7941451.71902934	0.23212001066536037
8089243.486805938	0.23417864469723837
8239785.684528512	0.23627242613367383
8393129.498166373	0.23840517319891105
8549327.066268368	0.24057761104993158
8708431.497690724	0.24279047833901335
8870496.889654402	0.2450445274648772
9035578.34613892	0.24734052482851346
9203731.99661823	0.24967925109376485
9375015.01514529	0.25206150145276046
9549485.639791967	0.2544880858962913
9727203.192450536	0.25695982948921386
9908228.099003786	0.2594775726509827
10092621.909870483	0.2619020919732806
10280447.320933098	0.26423035510180465
10471768.194855202	0.2666019476033181
10666649.582795387	0.26901767584482567
10865157.746525371	0.2714783611999581
11067360.180959744	0.27398484032825016
11273325.63710487	0.27653796545961196
11483124.14543511	0.2791386046840979
11696827.039703846	0.28178764224706576
11914506.981197748	0.2844859788498302
12136237.983442418	0.2872345319559102
12362095.437367693	0.29003423610297707
12592156.13694151	0.29288213142392155
