Frequency [GHz]	Zx real [Ohm/m]	Zy real [Ohm/m]
1.000000000000000166e-10	1.645908820816398190e+02	2.385614210136909321e+02
1.032794731918951654e-10	1.686966049837012918e+02	2.447971737979100624e+02
1.066664958279539403e-10	1.729369739676693882e+02	2.512374264230005281e+02
1.101645949633656381e-10	1.773164047157041239e+02	2.578888854064210818e+02
1.137774133221491146e-10	1.818394577210783325e+02	2.647584772040729035e+02
1.175087130904807540e-10	1.865108430372189900e+02	2.718533554231213429e+02
1.213623798344240958e-10	1.913354251824925711e+02	2.791809082713610906e+02
1.253424265461399975e-10	1.963182282058413932e+02	2.867487662508807489e+02
1.294529978227915867e-10	2.014644409185458755e+02	2.945648101040395090e+02
1.336983741824946476e-10	2.067794222975613820e+02	3.026371790200293503e+02
1.380829765218092491e-10	2.122687070660558959e+02	3.109742791105699666e+02
1.426113707194128486e-10	2.179380114569600266e+02	3.195847921635613034e+02
1.472882723907502473e-10	2.237932391655307640e+02	3.284776846838101392e+02
1.521185517986104510e-10	2.298404874971285210e+02	3.376622172302446643e+02
1.571072389247450498e-10	2.360860537166083475e+02	3.471479540593403499e+02
1.622595287078087593e-10	2.425364416059380801e+02	3.569447730847999196e+02
1.675807864530767868e-10	2.491983682368716018e+02	3.670628761638579363e+02
1.730765534195724819e-10	2.560787709657303139e+02	3.775127997209218620e+02
1.787525525904235329e-10	2.631848146575764531e+02	3.883054257196134813e+02
1.846146946324547531e-10	2.705238991473009378e+02	3.994519929946335424e+02
1.906690840512252406e-10	2.781036669453965260e+02	4.109641089552544599e+02
1.969220255479172543e-10	2.859320111964385660e+02	4.228537616726239321e+02
2.033800305846981002e-10	2.940170838985627597e+02	4.351333323634686963e+02
2.100498241653915480e-10	3.023673043924984540e+02	4.478156082831999356e+02
2.169383518385184289e-10	3.109913681289967258e+02	4.609137960418405555e+02
2.240527869300018610e-10	3.198982557237855531e+02	4.744415353566500926e+02
2.314005380130653023e-10	3.290972423094776786e+02	4.884129132557582693e+02
2.389892566231049743e-10	3.385979071941736152e+02	5.028424787476060374e+02
2.468268452255692806e-10	3.484101438368149957e+02	5.177452579714658896e+02
2.549214654451423314e-10	3.585441701496769724e+02	5.331367698448194687e+02
2.632815465648021228e-10	3.690105391387290297e+02	5.490330422238872643e+02
2.719157943036017723e-10	3.798201498929417426e+02	5.654506285941370152e+02
2.808331998823172083e-10	3.909842589339871779e+02	5.824066253081555260e+02
2.900430493863991314e-10	4.025144919381475006e+02	5.999186893888286249e+02
2.995549334359813486e-10	4.144228558426424911e+02	6.180050569163749969e+02
3.093787571730138678e-10	4.267217513489786711e+02	6.366845620183751180e+02
3.195247505759212065e-10	4.394239858363442295e+02	6.559766564825736168e+02
3.300034791125284578e-10	4.525427866984946945e+02	6.759014300128809509e+02
3.408258547423451742e-10	4.660918151180175073e+02	6.964796311496603494e+02
3.520031472796679687e-10	4.800851802923208425e+02	7.177326888760950396e+02
3.635469961293320139e-10	4.945374541261593890e+02	7.396827349331257437e+02
3.754694224073336536e-10	5.094636864059980894e+02	7.623526268662056964e+02
3.877828414589456106e-10	5.248794204720137486e+02	7.857659718278622449e+02
4.005000757873611052e-10	5.408007094040584661e+02	8.099471511608624041e+02
4.136343684063274911e-10	5.572441327384339047e+02	8.349213457875725908e+02
4.271993966306778827e-10	5.742268137328899229e+02	8.607145624319574608e+02
4.412092863191189219e-10	5.917664371978240752e+02	8.873536607015222444e+02
4.556786265841064474e-10	6.098812679122503368e+02	9.148663810574003037e+02
4.706224849841281415e-10	6.285901696437130113e+02	9.432813737017097537e+02
4.860564232142136024e-10	6.479126247919573416e+02	9.726282284122689816e+02
5.019965133110081441e-10	6.678687546768042012e+02	1.002937505355725079e+03
5.184593543892912175e-10	6.884793404913644963e+02	1.034240766911199444e+03
5.354620899273606527e-10	7.097658449424056926e+02	1.066570610537574112e+03
5.530224256192902378e-10	7.317504346004105855e+02	1.099960702718657558e+03
5.711586478126431938e-10	7.544560029825977381e+02	1.134445814021568367e+03
5.898896425508497150e-10	7.779061943929460767e+02	1.170061855304853452e+03
6.092349152400710261e-10	8.021254285440450076e+02	1.206845915114038235e+03
6.292146109610343618e-10	8.271389259864114365e+02	1.244836298303556077e+03
6.498495354469890483e-10	8.529727343717557915e+02	1.284072565925272329e+03
6.711611767496282870e-10	8.796537555775430519e+02	1.324595576425143008e+03
6.931717276155404727e-10	9.072097737210980313e+02	1.366447528190906041e+03
7.159041085964887260e-10	9.356694840924245682e+02	1.409672003495111767e+03
7.393819919175865964e-10	9.650625230358697308e+02	1.454314013879256436e+03
7.636298261282244400e-10	9.954194988117485536e+02	1.500420047026272414e+03
7.886728615614152294e-10	1.026772023470067325e+03	1.548038115170190622e+03
8.145371766280743462e-10	1.059152745769538114e+03	1.597217805093387369e+03
8.412497049736117954e-10	1.092595385176162154e+03	1.648010329763472328e+03
8.688382635251186617e-10	1.127134766976788342e+03	1.700468581663599480e+03
8.973315814583522479e-10	1.162806858544212446e+03	1.754647187871728192e+03
9.267593301146878953e-10	1.199648806791578409e+03	1.810602566946194656e+03
9.571521538991863169e-10	1.237698976855088858e+03	1.868392987676832036e+03
9.885417021919573871e-10	1.276996992045302704e+03	1.928078629762813989e+03
1.020960662306046580e-09	1.310275145114611632e+03	1.980589850836029655e+03
1.054442793526168950e-09	1.340518305489931208e+03	2.029667491060210295e+03
1.089022962263730067e-09	1.371753282202140781e+03	2.080354619338756947e+03
1.124737178364752061e-09	1.404012601602122459e+03	2.132704018400941095e+03
1.161622632608501755e-09	1.437329856733713541e+03	2.186770201971486131e+03
1.199717735435884489e-09	1.471739742315621015e+03	2.242609471538109119e+03
1.239062156947916503e-09	1.507278090870549249e+03	2.300279974980719999e+03
1.279696868215940940e-09	1.543981910039177819e+03	2.359841767123361024e+03
1.321664183946605026e-09	1.581889421117843995e+03	2.421356872271933298e+03
1.365007806546013663e-09	1.621040098860048829e+03	2.484889348802818404e+03
1.409772871628966933e-09	1.661474712583255496e+03	2.550505355869682262e+03
1.456005995020649598e-09	1.703235368623760905e+03	2.618273222297895245e+03
1.503755321299737753e-09	1.746365554183873428e+03	2.688263517738339488e+03
1.553070573933460069e-09	1.790910182617045848e+03	2.760549126154683108e+03
1.604003107056820079e-09	1.836915640198111987e+03	2.835205321720638040e+03
1.656605958949914401e-09	1.884429834427359310e+03	2.912309847206268387e+03
1.710933907269014249e-09	1.933502243918698696e+03	2.991942994934936451e+03
1.767043526088946692e-09	1.984183969923924224e+03	3.074187690395230220e+03
1.824993244816152494e-09	2.036527789546680424e+03	3.159129578594898248e+03
1.884843409033795523e-09	2.090588210701578646e+03	3.246857113246764584e+03
1.946656343342262358e-09	2.146421528875678632e+03	3.337461648879451332e+03
2.010496416260498236e-09	2.204085885751442220e+03	3.431037535968850079e+03
2.076430107255774870e-09	2.263641329752226738e+03	3.527682219189426633e+03
2.144526075971667793e-09	2.325149878573329715e+03	3.627496338887611273e+03
2.214855233726359314e-09	2.388675583763744726e+03	3.730583835883025131e+03
2.287490817355702788e-09	2.454284597425842549e+03	3.837052059706599721e+03
2.362508465477946229e-09	2.522045241102454838e+03	3.947011880388354257e+03
2.439986297259550245e-09	2.592028076923098979e+03	4.060577803911225146e+03
2.520004993764092080e-09	2.664305981083407005e+03	4.177868091451155124e+03
2.602647881969005809e-09	2.738954219734317576e+03	4.299004882527655354e+03
2.688001021537606561e-09	2.816050527360006072e+03	4.424114322193028784e+03
2.776153294436799262e-09	2.895675187726218610e+03	4.553326692392758559e+03
2.867196497493770032e-09	2.977911117483281942e+03	4.686776547633804512e+03
2.961225437988034610e-09	3.062843952510831059e+03	4.824602855102099966e+03
3.058338032378433485e-09	3.150562137094226728e+03	4.966949139375200502e+03
3.158635408267817403e-09	3.241157016025450503e+03	5.113963631880691537e+03
3.262222009711669644e-09	3.334722929724455753e+03	5.265799425256104769e+03
3.369205705980266915e-09	3.431357312479969551e+03	5.422614632770963908e+03
3.479697903887691433e-09	3.531160793912104054e+03	5.584572552977087980e+03
3.593813663804627762e-09	3.634237303762385636e+03	5.751841839758524657e+03
3.711671819475765297e-09	3.740694180120346118e+03	5.924596677958230430e+03
3.833395101766601886e-09	3.850642281199396166e+03	6.103016964764400655e+03
3.959110266468459240e-09	3.964196100778330219e+03	6.287288497045277836e+03
4.088948226294862618e-09	4.081473887428729995e+03	6.477603164827602996e+03
4.223044187206674123e-09	4.202597767652375296e+03	6.674159151120093156e+03
4.361537789208003199e-09	4.327693873056939992e+03	6.877161138290109193e+03
4.504573251759458750e-09	4.456892471702352850e+03	7.086820521208383980e+03
4.652299523960189308e-09	4.590328103754644872e+03	7.303355627383753017e+03
4.804870439655131104e-09	4.728139721588529937e+03	7.526991944317188427e+03
4.962444877628916452e-09	4.870470834484591251e+03	7.757962354311793206e+03
5.125186927053329472e-09	5.017469658071804588e+03	7.996507376983382528e+03
5.293266058360561204e-09	5.169289268670965612e+03	8.242875419724090534e+03
5.466857299720180771e-09	5.326087762699762607e+03	8.497323036379872065e+03
5.646141419303669251e-09	5.488028421305531992e+03	8.760115194411300763e+03
5.831305113526221869e-09	5.655279880397053603e+03	9.031525550815769748e+03
6.022541201461928965e-09	5.828016306252538016e+03	9.311836737098556114e+03
6.220048825634711276e-09	6.006417576886587085e+03	9.601340653589360954e+03
6.424033659394191079e-09	6.190669469365080658e+03	9.900338773410969225e+03
6.634708121092347870e-09	6.380963853262969678e+03	1.020914245641640446e+04
6.852291595284060743e-09	6.577498890466467856e+03	1.052807327342158169e+04
7.077010661181889919e-09	6.780479241527739759e+03	1.085746334107114308e+04
7.309099328602911004e-09	6.990116278786877956e+03	1.119765566768603094e+04
7.548799281653435948e-09	7.206628306483215965e+03	1.154900451045314367e+04
7.796360130405233414e-09	7.430240788085080567e+03	1.191187574432883230e+04
8.052039670825474778e-09	7.661186581074808601e+03	1.228664724304057199e+04
8.316104153230961616e-09	7.899706179433449506e+03	1.267370927258343363e+04
8.588828559546249041e-09	8.146047964077672987e+03	1.307346489762115198e+04
8.870496889654407999e-09	8.400468461509746703e+03	1.348633040121508384e+04
9.161402457138517586e-09	8.663232610949782611e+03	1.391273571831795380e+04
9.461848194721997291e-09	8.934614040228620070e+03	1.435312488348402803e+04
9.772146969725725887e-09	9.214895350728442281e+03	1.480795649326174134e+04
1.009262190987047331e-08	9.492500835629478388e+03	1.526257442367509066e+04
1.042360673976401127e-08	9.749058249294112102e+03	1.569366109506138127e+04
1.076544612842315905e-08	1.001402939456170316e+04	1.613888513826963026e+04
1.111849604819270880e-08	1.028769019750459483e+04	1.659871018461875065e+04
1.148312414543511117e-08	1.057032563311672493e+04	1.707361507009251363e+04
1.185971012337669343e-08	1.086223002207054742e+04	1.756409433397238536e+04
1.224864613750930795e-08	1.116370733720607859e+04	1.807065873382300560e+04
1.265033720395903769e-08	1.147302203975798511e+04	1.859117715187599970e+04
1.306520162124721228e-08	1.178067766070242760e+04	1.911345478535380971e+04
1.349367140588306343e-08	1.209842276525909983e+04	1.965286037380879134e+04
1.393619274224142065e-08	1.242658823533827126e+04	2.020995562393273940e+04
1.439322644719406651e-08	1.276551580403374282e+04	2.078532066343782208e+04
1.486524844997857277e-08	1.311555841148453510e+04	2.137955464516903157e+04
1.535275028780422776e-08	1.347708057240687776e+04	2.199327637102822700e+04
1.585623961771137302e-08	1.385021537946005810e+04	2.262680696363496463e+04
1.637624074521687477e-08	1.421852028341036930e+04	2.325881618265536599e+04
1.691329517029648562e-08	1.459890364795017740e+04	2.391155197458386829e+04
1.746796215127245689e-08	1.499176158295648565e+04	2.458569406182255261e+04
1.804081928719382751e-08	1.539750318862355743e+04	2.528194445808751334e+04
1.863246311931559514e-08	1.581655098147684839e+04	2.600102819944644216e+04
1.924350975230330612e-08	1.624934133435799049e+04	2.674369409933052157e+04
1.987459549580983990e-08	1.669632493083899317e+04	2.751071552830666405e+04
2.052637752709252173e-08	1.713901671849390914e+04	2.827793529888991543e+04
2.119953457536071000e-08	1.759356477584549793e+04	2.906681066016174736e+04
2.189476762856620985e-08	1.806301961488221059e+04	2.988155697742395569e+04
2.261280066337277307e-08	1.854787009951318396e+04	3.072302268174272467e+04
2.335438139906479724e-08	1.904862112580842950e+04	3.159208402825365920e+04
2.412028207618007283e-08	1.956579414776914200e+04	3.248964600864450767e+04
2.491130026067788373e-08	2.009992772034076916e+04	3.341664329356291273e+04
2.572825967447932303e-08	2.063163580560499031e+04	3.434754739983205945e+04
2.657201105324503850e-08	2.117376589601453088e+04	3.529966035509335779e+04
2.744343303228365032e-08	2.173367499740426865e+04	3.628299759947902203e+04
2.834343306151309448e-08	2.231194616767304251e+04	3.729858312518023013e+04
2.927294835042816131e-08	2.290918158594724446e+04	3.834747450593755639e+04
3.023294684405776334e-08	2.352600317965625072e+04	3.943076399833893083e+04
3.122442823092858392e-08	2.416305327217278682e+04	4.054957967923424440e+04
3.224842498408442807e-08	2.480073140334023628e+04	4.167790207904608542e+04
3.330600343624588813e-08	2.544599697371280126e+04	4.282535157553286990e+04
3.439826489022924478e-08	2.611242385548226594e+04	4.401043137064747862e+04
3.552634676578139226e-08	2.680070602818293992e+04	4.523437553994543123e+04
3.669142378402493899e-08	2.751156023022195222e+04	4.649845863015931536e+04
3.789470919074667737e-08	2.824572670525027206e+04	4.780399698644001182e+04
3.913745601980383687e-08	2.900396997301102601e+04	4.915235012312483741e+04
4.042095839796305955e-08	2.976754096780785403e+04	5.051842646402009268e+04
4.174655289253134782e-08	3.053388971159541688e+04	5.189911236933304463e+04
4.311561990318228626e-08	3.132537065699194500e+04	5.332507749877504830e+04
4.452958509942655287e-08	3.214280800781167636e+04	5.479780677236282645e+04
4.598992090522439315e-08	3.298705299741210183e+04	5.631883380766712071e+04
4.749814803228499868e-08	3.385898477512036334e+04	5.788974251683567127e+04
4.905583706365045989e-08	3.475951132173019869e+04	5.951216875599057676e+04
5.066461008921269181e-08	3.567231490602363192e+04	6.116412229464946722e+04
5.232614239486661694e-08	3.658035394838374486e+04	6.282263276778106228e+04
5.404216420705915059e-08	3.751817188770999201e+04	6.453553364726377185e+04
5.581446249454960394e-08	3.848674531494524126e+04	6.630460865189286415e+04
5.764488282925879445e-08	3.948708284807051677e+04	6.813169999704333895e+04
5.953533130814369715e-08	4.052022618242306635e+04	7.001871031304940698e+04
6.148777653810024108e-08	4.158725117545956891e+04	7.196760462649719557e+04
6.350425168595962148e-08	4.267653874595960951e+04	7.396271195549222466e+04
6.558685659571428548e-08	4.374979875356243429e+04	7.595129303036756755e+04
6.773775997517751128e-08	4.485825603539397707e+04	7.800508908849260479e+04
6.995920165435375620e-08	4.600306487662675499e+04	8.012623883776001458e+04
7.225349491787214948e-08	4.718541741690620984e+04	8.231695112441459787e+04
7.462302891391107044e-08	4.840654489177781215e+04	8.457950723322153499e+04
7.707027114212294845e-08	4.966771891482669889e+04	8.691626326306842384e+04
7.959777002314985573e-08	5.096519372145985835e+04	8.932251599268932478e+04
8.220815755240541849e-08	5.223038057371152536e+04	9.170211055671380018e+04
8.490415204088747078e-08	5.353705888961016171e+04	9.415974328654127021e+04
8.768856094587425811e-08	5.488658937058298761e+04	9.669797342289863445e+04
9.056428379445295063e-08	5.628037734189583716e+04	9.931944413612656354e+04
9.353431520292386860e-08	5.771987421607969736e+04	1.020268852786280768e+05
9.660174799522647250e-08	5.920657900435058400e+04	1.048231162275842798e+05
9.976977642363202159e-08	6.074203987759543088e+04	1.077110488208949682e+05
1.030416994950587396e-07	6.223619622223901388e+04	1.105623255649030179e+05
1.064209244064724761e-07	6.377218787417052954e+04	1.134968402022314694e+05
1.099109700929497372e-07	6.535855196055681881e+04	1.165275914604032441e+05
1.135154708920999096e-07	6.699694043188198702e+04	1.196577353935997962e+05
1.172381803286598596e-07	6.868905941390337830e+04	1.228905315579532471e+05
1.210829750232039531e-07	7.043667098431513296e+04	1.262293464058652899e+05
1.250538587290391570e-07	7.224159500767705322e+04	1.296776567916417553e+05
1.291549665014884007e-07	7.400930890860002546e+04	1.330984736078770075e+05
1.333905690039058854e-07	7.580939937553410709e+04	1.365941506631837983e+05
1.377650769549053468e-07	7.766852332676113292e+04	1.402044675103945774e+05
1.422830457214352017e-07	7.958861674957277137e+04	1.439331837307521491e+05
1.469491800624817218e-07	8.157167912144488946e+04	1.477841821999582753e+05
1.517683390283405561e-07	8.361977549218108470e+04	1.517614731315822282e+05
1.567455410205594968e-07	8.573503863433974038e+04	1.558691982530724199e+05
1.618859690178197646e-07	8.782146353427364375e+04	1.599656835471572995e+05
1.671949759731990056e-07	8.992424068109135260e+04	1.641191258394322649e+05
1.726780903884356132e-07	9.209597784072418290e+04	1.684087791582230711e+05
1.783410220710008120e-07	9.433893653830555559e+04	1.728391105076288222e+05
1.841896680799711039e-07	9.665545246507943375e+04	1.774147333859505306e+05
1.902301188668944219e-07	9.904793791065784171e+04	1.821404125899289793e+05
1.964686646180446931e-07	1.015188842750440526e+05	1.870210691765370721e+05
2.029118018046678038e-07	1.039753106858253886e+05	1.919168202837873541e+05
2.095662399480432992e-07	1.064231684578418790e+05	1.968379121063478233e+05
2.164389086064020114e-07	1.089513030692673492e+05	2.019203898159776581e+05
2.235369645909794139e-07	1.115623471775295475e+05	2.071695460195789055e+05
2.308677994187169850e-07	1.142590197773508553e+05	2.125908468936781283e+05
2.384390470093720426e-07	1.170441290321564011e+05	2.181899378765951842e+05
2.462585916350547006e-07	1.199205751983382797e+05	2.239726495472868555e+05
2.543345761304648365e-07	1.228049048173861374e+05	2.298108875832574267e+05
2.626754103723835758e-07	1.256439067722489999e+05	2.356235205073793768e+05
2.712897800372467241e-07	1.285760130351390835e+05	2.416267771699913719e+05
2.801866556459195443e-07	1.316042769368784211e+05	2.478269090254941548e+05
2.893753019050950594e-07	1.347318519414551265e+05	2.542303725430603663e+05
2.988652873550382326e-07	1.379619949298633437e+05	2.608438359300378652e+05
3.086664943337274455e-07	1.412980695916364202e+05	2.676741860758473631e+05
3.187891292677645596e-07	1.446752160036576679e+05	2.746199327929234132e+05
3.292437333007768907e-07	1.479547743653477228e+05	2.814623481306222384e+05
3.400411932703706463e-07	1.513418849643219728e+05	2.885291586449989118e+05
3.511927530450727317e-07	1.548400749473694013e+05	2.958277233157166629e+05
3.627100252330649086e-07	1.584529871331125905e+05	3.033656424582040054e+05
3.746050032748993774e-07	1.621843838054338121e+05	3.111507656381956767e+05
3.868900739327976195e-07	1.660381506313070422e+05	3.191911998458311427e+05
3.995780301895269929e-07	1.699803222444796993e+05	3.274333719076849520e+05
4.126820845702951630e-07	1.737526457654998812e+05	3.354579369900674792e+05
4.262158829015325345e-07	1.776486816251036362e+05	3.437456655330931535e+05
4.401935185208874400e-07	1.816724869362695317e+05	3.523051879119041259e+05
4.546295469532399562e-07	1.858282518639091868e+05	3.611454175324824755e+05
4.695390010680058238e-07	1.901203039882690064e+05	3.702755601135697216e+05
4.849374067335232931e-07	1.945531128114293388e+05	3.797051232729854528e+05
5.008407989848212921e-07	1.991312944115933205e+05	3.894439264283273951e+05
5.172657387216018967e-07	2.034591814590181457e+05	3.988305808495033416e+05
