# Frequency (Hz)	Imaginary Part (Ohm/m)
1000.0	61788232.09449112
1018.6101701559753	61640773.56026761
1037.566678745186	61490570.79763124
1056.875971184804	61337572.73602433
1076.5446128423157	61181727.35445737
1096.5792912678098	61022981.66382144
1116.9868184678226	60861281.68887124
1137.7741332214914	60696572.44987299
1158.9483034398106	60528797.94391074
1180.5165285688054	60357901.12584468
1202.4861420374123	60183823.88891529
1224.8646137509306	60006507.04498638
1247.6595526308697	59825890.304420434
1270.8787092020582	59655150.55094743
1294.529978227916	59493942.45240952
1318.6214013947485	59329734.24372733
1343.1611700460153	59162470.09234053
1368.1576279674719	58992093.12663543
1393.619274224142	58818545.4166079
1419.5547660501015	58641767.95416657
1445.9729217920194	58461700.63306947
1472.882723907502	58278282.22848724
1500.2933220192183	58091450.37618596
1528.2140360258693	57901141.55132283
1556.654359271062	57707291.0468468
1585.6239617711371	57510575.85972388
1615.132693503091	57339441.84019365
1645.1905877536624	57165122.98744049
1675.807864530767	56987560.03117617
1706.9949340384078	56806692.59808239
1738.7624002162504	56622459.191283084
1771.1210643450886	56434797.1694348
1804.0819287193826	56243642.72542811
1837.6562003881704	56048930.86469239
1871.8552949655793	55850595.38309699
1906.690840512252	55648568.84444113
1942.1746814890264	55442782.55752486
1978.3188827841643	55233166.55279333
2015.1357338155585	55037929.462114885
2052.6377527092523	54854933.856849805
2090.8376905557498	54668532.67223295
2129.748535745521	54478662.52985309
2169.3835183851843	54285258.871816
2209.756114795903	54088255.93879406
2250.880052095462	53887586.74766734
2292.7693128656488	53683183.06874872
2335.438139906479	53474975.402584895
2378.9010410788933	53262892.956326
2423.1727942376006	53046863.61965511
2468.2684522556924	52826813.940270096
2514.2033481427966	52604569.246197134
2560.9931002584594	52414626.16961621
2608.6536176225477	52221148.22006018
2657.2011053245064	52024069.612941466
2706.652070033241	51823323.33941018
2757.0233256095826	51618841.1435703
2808.3319988231724	51410553.49927195
2860.5955351757416	51198389.586471856
2913.831704832789	50982277.26715356
2968.0586086656026	50762143.060799964
3023.2946844057765	50537912.11940899
3079.5587129142264	50309508.20204449
3136.8698245668766	50076853.64891354
3195.2475057592133	49863622.81626848
3254.711605531848	49665069.720842816
3315.282342319423	49462821.51852629
3376.9803108250912	49256809.44275089
3439.8264890229243	49046963.44719116
3503.8422452906757	48833212.18194748
3569.0493456752292	48615482.969286576
3635.4699612933177	48393701.77893013
3703.126675869927	48167793.20288372
3772.0424934169973	47937680.42979744
3842.240846055061	47703285.21884893
3913.745601980384	47464527.873140946
3986.581073580439	47224762.71402742
4060.7720257003657	47023299.67117946
4136.343684063274	46818087.36682399
4213.321743847289	46609056.02656635
4291.732378422157	46396134.57749857
4371.602248248501	46179250.62403381
4452.958509942655	45958330.423290946
4535.828825510186	45733298.860021375
4620.241371751313	45504079.42106889
4706.224849841281	45270594.16935445
4793.808495089106	45032763.71737668
4883.02208687788	44790507.20021934
4973.895958790063	44543742.24805631
5066.461008921268	44321415.353080794
5160.7487103859075	44115522.70407453
5256.791122018419	43905798.35783639
5354.620899273607	43692171.00582888
5454.271305329836	43474568.01245055
5555.7762223988775	43252915.39033902
5659.170163246242	43027137.77521447
5764.488282925873	42797158.40025505
5871.766390733255	42562899.06999523
5981.040962380945	42324280.133738674
6092.349152400711	42081220.45847596
6205.7288067765	41833637.40129853
6321.218475812449	41586651.66637595
6438.8574272404185	41382347.84248421
6558.685659571435	41174241.88966635
6680.743915695614	40962263.04965606
6805.073696735206	40746339.24736374
6931.717276155407	40526397.06637
7060.717714137772	40302361.7239635
7192.118872221193	40074157.04571388
7325.96542821523	39841705.439571634
7462.302891391108	39604927.86948605
7601.17761795533	39363743.82853205
7742.636826811269	39118071.311537005
7886.728615614156	38867826.787198
8033.501977124735	38646334.32858777
8183.00681586739	38442051.96742098
8335.293965098195	38233967.876753
8490.415204088747	38022011.30575096
8648.423275731726	37806110.18689688
8809.37190447399	37586191.111484066
8973.31581458352	37362179.30465728
9140.310748756232	37133998.59998849
9310.413487069076	36901571.41357951
9483.681866285926	36664818.71768258
9660.174799522645	36423660.01383012
9839.952296278227	36178013.30546437
10023.075482838643	35934776.34084754
10209.606623060476	35736334.74754825
10399.609139541202	35534200.12243166
10593.1476351837	35328303.737547226
10790.287915161836	35118575.58590559
10991.097009294961	34904944.35767542
11195.643194838794	34687337.415937215
11403.99601970033	34465680.771986164
11616.22632608502	34239899.060174994
11832.40627458378	34009915.512288906
12052.609368708414	33775651.93144359
12276.910479883603	33537028.66549737
12505.385872903913	33293964.579968724
12738.113231864783	33082675.35688795
12975.171686575868	32888285.31583269
13216.641839466038	32690277.643036757
13462.60579298911	32488585.013757885
13713.147177539455	32283138.85032896
13968.351179887397	32073869.298840713
14228.30457214352	31860705.205390815
14493.09574126215	31643574.09189067
14762.81471909391	31422402.13142211
15037.553212997384	31197114.123135515
15317.404637020798	30967633.466680605
15602.46414366368	30733882.13616157
15892.828656229764	30504295.839966122
16188.596901781993	30319137.00313982
16489.86944471065	30130532.32885431
16796.74872092653	29938417.689488146
17109.339072690134	29742727.763993908
17427.746784089173	29543396.015688427
17752.08011717636	29340354.669629462
18082.44934877952	29133534.689571664
18418.96680799711	28922865.754493337
18761.746914391195	28708276.234686624
19110.90621689136	28489693.16740262
19466.56343342263	28267042.23204323
19828.83949127071	28040247.724891417
20197.857568198782	27846605.955870762
20573.743134329114	27668576.01675471
20956.623994804308	27487232.910178844
21346.630333242454	27302514.97753297
21743.8947560008	27114359.41272972
22148.55233726359	26922702.240849677
22560.74066496859	26727478.296389353
22980.599887588487	26528621.20110409
23408.272761782944	26326063.341438822
23843.904700937208	26119735.845538776
24287.643824604504	25909568.559832178
24739.64100886812	25695490.025177356
25200.049937640895	25487033.035435446
25669.027154919517	25320399.922350626
26146.732118010917	25150665.7386777
26633.327251749808	24977772.772965327
27128.978003724646	24801662.239742275
27633.852900531667	24622274.259529695
28148.123605075813	24439547.838481385
28671.964974937695	24253420.847645406
29205.55512182745	24063830.00183935
29749.075472144435	23870710.8381328
30302.71082866393	23673997.693929344
30866.649433372742	23473623.684640296
31441.08303147265	23269520.680943564
32026.206936576502	23098264.91227668
32622.220097116733	22940633.339374218
33229.325163989684	22780068.216078125
33847.72855945983	22616514.948516335
34477.640547344636	22449917.926815674
35119.275304507275	22280220.506193686
35772.850993678774	22107364.98769888
36438.58983763541	21931292.598592516
37116.71819475767	21751943.47236508
37807.466635993485	21569256.628381245
38511.070023255685	21383169.951145608
39227.76758927723	21193620.169182844
39957.803018952654	21010693.797962617
40701.42453219439	20865343.43819519
41458.88496832911	20717288.08350028
42230.441872066716	20566477.393462002
43016.35758106799	20412860.09082074
43816.89931514194	20256383.94403845
44632.33926710397	20096995.74953918
45462.95469532399	19934641.31361943
46309.02801799736	19769265.43402164
47170.84690917023	19600811.881164823
48048.704396551344	19429223.379025977
48942.89896114532	19254441.585665513
49853.73463873894	19076407.073390458
50781.5211232767	18929480.211298667
51726.57387216024	18793836.713693846
52689.21421350677	18655668.86751807
53669.76945540476	18514929.694214888
54668.57299720181	18371571.340948913
55685.96444286408	18225545.064335376
56722.28971644549	18076801.2138668
57777.90117970507	17925289.215031374
58853.1577519145	17770957.552116938
59948.42503189408	17613753.75069522
61064.07542232036	17453624.35977987
62200.48825634718	17290514.933652602
63358.04992658254	17134531.54253031
64537.15401646702	17010970.54787178
65738.20143409586	16885110.062078003
66961.60054853215	16756907.291227702
68207.76732865692	16626318.644997386
69477.1254846024	16493299.721840307
70770.10661181889	16357805.293889308
72087.15033782135	16219789.291578947
73428.70447166759	16079204.787981354
74795.22515621828	15936003.982850496
76187.17702322999	15790138.186369695
77605.0333513357	15641557.802596448
79049.2762269642	15490212.312599342
80520.39670825469	15367228.598824156
82018.8949920221	15253156.224748265
83545.28058382872	15136960.944380738
85100.07247122246	15018603.250074245
86683.79930019773	14898042.898937449
88296.99955494082	14775238.899151923
89940.22174092053	14650149.496034544
91614.0245713852	14522732.157840459
93318.9771573324	14392943.561301757
95055.65920101192	14260739.576897165
96824.66119303115	14126075.253847506
98626.5846131283	13988904.804831937
100462.04213468132	13858915.360450272
102331.65783302448	13755978.777352132
104236.06739764012	13651126.526927259
106175.9183482999	13544322.95828074
108151.87025522892	13435531.757048436
110164.59496336569	13324715.933049737
112214.77682079801	13211837.80771045
114303.11291144785	13096859.001251705
116430.31329208757	12979740.419640437
118597.10123376705	12860442.241296941
120804.21346773289	12738923.903555188
123052.40043592616	12615144.088870991
125342.42654613995	12489060.710773645
127675.07043192645	12388056.799596915
130051.12521734099	12293794.736305213
132471.39878661174	12197778.439976405
134936.71405883064	12099975.264035176
137447.90926775365	12000351.954347884
140005.8382468096	11898874.637915807
142611.37071941295	11795508.811357949
145265.39259467812	11690219.329179546
147968.80626863963	11582970.39182217
150722.53093107554	11473725.533491528
153527.5028780421	11362447.609758684
156384.67583022476	11249098.784930555
159295.0212572123	11142645.912706582
162259.5287078087	11058173.467293859
165279.2061464897	10972128.975298509
168355.08029612005	10884483.18066616
171488.19698705408	10795206.282882228
174679.62151272455	10704267.92683955
177930.43899185772	10611637.192517214
181241.75473742394	10517282.584467452
184614.69463245454	10421172.021106908
188050.40551285836	10323272.823808413
191550.0555573528	10223551.705790073
195114.83468466165	10121974.760797266
198745.9549580986	10018507.451574208
202444.65099768018	9936702.990687596
206212.18039991445	9859800.15412789
210049.8241653915	9781466.142694343
213958.88713434213	9701674.321979014
217940.6984302958	9620397.56190311
221996.61191199525	9537608.227492487
226128.00663372793	9453278.16948136
230336.2873142131	9367378.714741398
234622.88481422624	9279880.656532414
238989.25662310526	9190754.244571833
243436.8873543108	9099969.174919296
247967.289250216	9007494.579672886
252582.00269627848	8921411.427270187
257282.59674479323	8852830.640200602
262070.66964838552	8782973.553014211
266947.8494034318	8711816.413548695
271915.7943036019	8639335.027609905
276976.1935036891	8565504.750745652
282130.76759394706	8490300.4798663
287381.2691851069	8413696.644709418
292729.4835042813	8335667.199145678
298177.22900196735	8256185.612322807
303726.3579703311	8175224.859644903
309378.75717301364	8092757.413583708
315136.34848664823	8008755.234318976
321001.08955431683	7943145.13459714
326974.97445117676	7880961.718103677
333060.03436245886	7817621.057648396
339258.33827409917	7753101.616724253
345571.9936762143	7687381.4580261335
352003.1472796675	7620438.235991982
358553.9857459817	7552249.1892049685
365226.7364308175	7482791.132654482
372023.6681413066	7412040.449852887
378947.09190746717	7339973.084805695
385999.36176797637	7266564.5338323
393182.87557057705	7191789.837234371
400500.07578736113	7122787.367515151
407953.45034524484	7067517.292351813
415545.53347188793	7011218.631685142
423278.90655735444	6953872.243363928
431156.19903182285	6895458.628998211
439180.0892596086	6835957.927329728
447353.3054498463	6775349.907478795
455678.6265841068	6713613.962065615
464158.8833612772	6650729.100203569
472796.9591600391	6586673.9403620185
481595.79101923504	6521426.703096459
490558.37063650455	6454965.203643178
499687.7453854889	6387266.844376241
508987.0193519675	6334993.691360742
518459.3543892913	6285015.085659043
528107.971193433	6234106.369601083
537936.1503980698	6182250.2336748615
547947.2336900292	6129429.046235414
558144.6249454955	6075624.84750989
568531.7913873753	6020819.343490968
579112.2647641759	5964993.899716775
589889.6425508494	5908129.534934911
600867.5891719692	5850206.91464864
612049.837247669	5791206.344542974
623440.1888627863	5731107.763788328
635042.5168595961	5676123.837735217
646860.7661546321	5631799.672103877
658898.9550799957	5586650.62620811
671161.1767496272	5540661.348885854
683651.6004510238	5493816.203287268
696374.4730628222	5446099.261558117
709334.1204987989	5397494.299424064
722534.9491787221	5347984.790674267
735981.4475265755	5297553.901542308
749678.1874966878	5246184.484982475
763629.8261282243	5193859.074839655
777841.1071286482	5140559.879910598
792316.8624866261	5086268.777894727
807062.0141149492	5044805.018891673
822081.575524054	5004796.033950669
837380.6535266489	4964042.474992152
852964.4499741016	4922530.485366953
868838.2635251193	4880245.9505513115
885007.4914473438	4837174.493347789
901477.6314524917	4793301.468996845
918254.2835656281	4748611.960197471
935343.1520292377	4703090.7720351545
952750.0472427299	4656722.426815431
970480.8877380306	4609491.158801321
988541.7021919573	4561380.908852787
1006938.6314760271	4517739.20970709
1025677.9307444209	4482307.98327146
1044765.9715608053	4446217.375683024
1064209.2440647245	4409455.115746338
1084014.359178331	4372008.703896912
1104188.0508541602	4333865.407951239
1124737.1783647507	4295012.258777705
1145668.7286348727	4255436.045886954
1166989.8186171474	4215123.31294018
1188707.6977119034	4174060.3531738142
1210829.7502320393	4132233.2047390896
1233363.4979137746	4089627.6459548543
1256316.6024741214	4046229.1904720496
1279696.8682159416	4013434.9594192477
1303512.2446815087	3981490.3794166516
1327770.829355429	3948951.3053446445
1352480.8704178738	3915806.6735674385
1377650.769549055	3882045.2145531
1403289.084785873	3847655.4490417936
1429404.533431761	3812625.6841426967
1456005.9950206485	3776944.009358304
1483102.514336103	3740598.292534725
1510703.3044866556	3703576.1757366136
1538817.7500383465	3665865.0710453596
1567455.410205595	3627452.156279031
1596626.022101425	3592902.013742691
1626339.5040481905	3564638.9675504155
1656605.9589499151	3535849.9412593734
1687435.6777273756	3506525.1462904336
1718839.1428171454	3476654.611897332
1750827.0317357269	3446228.1817765217
1783410.220710006	3415235.510613931
1816599.7883753285	3383666.060567409
1850407.019542302	3351509.0976837943
1884843.4090337954	3318753.6882492164
1919920.6655932867	3285388.6950715287
1955650.715865947	3251402.773693559
1992045.7084538713	3216784.3685358297
2029118.0180466783	3190896.2763569313
2066880.2496290822	3165433.647430663
2105345.242766708	3139497.1546474546
2144526.0759716653	3113077.979320307
2184436.0711494284	3086167.138644935
2225088.7981283693	3058755.4826455577
2266498.079273693	3030833.6910637743
2308677.994187172	3002392.270189591
2351642.884494346	2973421.5496334694
2395407.358720879	2943911.679038249
2439986.29725955	2913852.624729974
2485394.857429798	2883234.1663062954
2531648.478631358	2855927.5308249826
2578762.8875937983	2833412.993770559
2626754.1037238385	2810479.4573505637
2675638.4445520453	2787119.1239155172
2725432.531281028	2763324.0507003437
2776153.2944368036	2739086.1471237587
2827817.979625338	2714397.172037395
2880444.1533962977	2689248.730923692
2934049.709215787	2663632.27304171
2988652.873550383	2637539.0885197483
3044272.2120643063	2610960.3053939203
3100926.6359319235	2583886.886591587
3158635.408267819	2556309.6268586325
3217418.1506763715	2535898.8464154876
3277294.849923382	2515624.9332849323
3338285.8647317644	2494973.719181286
3400411.9327037027	2473938.1824692497
3463694.1773717343	2452511.1708396743
3528154.1153808828	2430685.398877742
3593813.6638046256	2408453.4455858124
3660695.147596906	2385807.7518602177
3728821.30718283	2362740.617921094
3798215.306190736	2339244.2006943477
3868900.7393279755	2315310.511144959
3940901.6404034477	2290931.411560595
4014242.490499326	2269373.3833849044
4088948.226294856	2251453.7326477235
4165044.248545185	2233200.594161183
4242556.430717777	2214607.761661531
4321511.127789762	2195668.913385379
4401935.1852088785	2176377.609920247
4483855.948021181	2156727.2920151027
4567301.270168747	2136711.27835012
4652299.523960189	2116322.7632649895
4738879.609717651	2095554.8144448977
4827070.965603188	2074400.3705634712
4916903.577628021	2052852.238881861
5008407.989848212	2030903.0928031073
5101615.314749833	2014824.107665759
5196557.243827657	1998692.7749287267
5293266.058360566	1982261.235344614
5391774.640387494	1965523.9020129198
5492116.483887789	1948475.0840599623
5594325.706169377	1931108.984703943
5698437.0594691355	1913419.6992839633
5804485.942768984	1895401.2132523782
5912508.413831869	1877047.4001297962
6022541.201461928	1858352.0194219875
6134621.717992506	1839308.7144980782
6248788.072006888	1819911.010429203
6365079.081295578	1802903.7165338115
6483534.286054714	1788649.108536691
6604193.962330305	1774129.2198592343
6727099.135712336	1759339.1135828462
6852291.595284057	1744273.7609120295
6979813.907830667	1728928.039464547
7109709.432312423	1713296.7315297646
7242022.334607315	1697374.5222945516
7376797.60252773	1681155.9980362142
7514081.061116962	1664635.6442817503
7653919.388230155	1647807.843932877
7796360.130405221	1630666.8753561638
7941451.71902934	1613206.9104375967
8089243.486805938	1600547.4973136259
8239785.684528512	1587717.9700328964
8393129.498166373	1574649.6830664505
8549327.066268368	1561338.193055915
8708431.497690724	1547778.9739512508
8870496.889654402	1533967.4154718684
9035578.34613892	1519898.8215390653
9203731.99661823	1505568.4086793151
9375015.01514529	1490971.3043978424
9549485.639791967	1476102.5455219063
9727203.192450536	1460957.0765132809
9908228.099003786	1445529.747749313
10092621.909870483	1432119.0647308338
10280447.320933098	1420783.8953596817
10471768.194855202	1409237.7765577852
10666649.582795387	1397476.782520345
10865157.746525371	1385496.9143826645
11067360.180959744	1373294.098860494
11273325.63710487	1360864.1868650755
11483124.14543511	1348202.9520923984
11696827.039703846	1335306.0895862172
11914506.981197748	1322169.2142743173
12136237.983442418	1308787.859477544
12362095.437367693	1295157.4753910862
12592156.13694151	1281324.5490483907
12826498.3052806	1271310.226010871
13065201.621247198	1261109.5347176262
13308347.24654076	1250719.0068237036
13556017.853293689	1240135.1094376668
13808297.652180923	1229354.243920362
14065272.421052363	1218372.7446613517
14327029.534098294	1207186.8778325634
14593657.991557576	1195792.8401187474
14865248.449978571	1184186.7574243157
15141893.25304352	1172364.6835560964
15423686.462966273	1160322.5988815925
15710723.892474487	1148056.4089622637
16003103.137387017	1137485.2436986193
16300923.609797413	1128473.5918787485
16604286.571875297	1119294.231685124
16913295.17029647	1109944.0420363727
17228054.471313924	1100419.8437672681
17548671.49648152	1090718.3985477749
17875255.259042352	1080836.407781989
18207916.800994623	1070770.511486572
18546769.230846975	1060517.2871483252
18891927.762076646	1050073.2485604961
19243509.75230332	1039434.8446374306
19601634.743191857	1028598.45820717
19966424.501097932	1017682.3266065661
20338003.0584698	1009721.3847732394
20716496.75602067	1001612.2884577924
21102034.285685964	993352.2804801035
21494746.734379806	984938.5523484602
