# Frequency (Hz)	Imaginary Part (Ohm/m)
1000.0	21438421.068023846
1018.6101701559753	21387141.566321738
1037.566678745186	21334907.74436743
1056.875971184804	21281701.842098676
1076.5446128423157	21227505.768935382
1096.5792912678098	21172301.097628735
1116.9868184678226	21116069.057995673
1137.7741332214914	21058790.53053681
1158.9483034398106	21000446.039935663
1180.5165285688054	20941015.748436768
1202.4861420374123	20880479.44910065
1224.8646137509306	20818816.55893328
1247.6595526308697	20756006.11188758
1270.8787092020582	20697217.881223883
1294.529978227916	20642319.227744743
1318.6214013947485	20586398.90098302
1343.1611700460153	20529437.887425084
1368.1576279674719	20471416.81971257
1393.619274224142	20412315.97005731
1419.5547660501015	20352115.243533596
1445.9729217920194	20290794.171245757
1472.882723907502	20228331.9033685
1500.2933220192183	20164707.202057716
1528.2140360258693	20099898.434229426
1556.654359271062	20033883.56420424
1585.6239617711371	19966916.39182641
1615.132693503091	19909576.423534185
1645.1905877536624	19851169.34867531
1675.807864530767	19791675.308214985
1706.9949340384078	19731074.073538437
1738.7624002162504	19669345.03957289
1771.1210643450886	19606467.217781685
1804.0819287193826	19542419.229027912
1837.6562003881704	19477179.29630527
1871.8552949655793	19410725.2373337
1906.690840512252	19343034.457017124
1942.1746814890264	19274083.93976085
1978.3188827841643	19203850.241646107
2015.1357338155585	19138808.90298779
2052.6377527092523	19078201.448558856
2090.8376905557498	19016466.079090282
2129.748535745521	18953581.803891253
2169.3835183851843	18889527.24163064
2209.756114795903	18824280.613067087
2250.880052095462	18757819.733643867
2292.7693128656488	18690122.005945858
2335.438139906479	18621164.41201622
2378.9010410788933	18550923.505530003
2423.1727942376006	18479375.403822172
2468.2684522556924	18406495.779767215
2514.2033481427966	18332911.43226217
2560.9931002584594	18270452.480489463
2608.6536176225477	18206831.156996503
2657.2011053245064	18142025.829847783
2706.652070033241	18076014.464533824
2757.0233256095826	18008774.616479144
2808.3319988231724	17940283.423410892
2860.5955351757416	17870517.597585466
2913.831704832789	17799453.41787035
2968.0586086656026	17727066.72167874
3023.2946844057765	17653332.896753978
3079.5587129142264	17578226.872801118
3136.8698245668766	17501723.112962753
3195.2475057592133	17431718.656260606
3254.711605531848	17366630.843794245
3315.282342319423	17300331.736062814
3376.9803108250912	17232798.790655304
3439.8264890229243	17164009.045642637
3503.8422452906757	17093939.111770283
3569.0493456752292	17022565.16450576
3635.4699612933177	16949862.935937937
3703.126675869927	16875807.706525743
3772.0424934169973	16800374.296693254
3842.240846055061	16723537.05826833
3913.745601980384	16645269.86576201
3986.581073580439	16566669.862643698
4060.7720257003657	16500595.298445638
4136.343684063274	16433291.07536487
4213.321743847289	16364734.309240352
4291.732378422157	16294901.690032916
4371.602248248501	16223769.473899592
4452.958509942655	16151313.475120451
4535.828825510186	16077509.057875216
4620.241371751313	16002331.127866779
4706.224849841281	15925754.12378891
4793.808495089106	15847752.008635124
4883.02208687788	15768298.260845795
4973.895958790063	15687365.865290577
5066.461008921268	15614308.953248007
5160.7487103859075	15546540.55075769
5256.791122018419	15477510.96676583
5354.620899273607	15407196.730470086
5454.271305329836	15335573.934272485
5555.7762223988775	15262618.225650605
5659.170163246242	15188304.798877422
5764.488282925873	15112608.386587113
5871.766390733255	15035503.251183888
5981.040962380945	14956963.176090904
6092.349152400711	14876961.456836382
6205.7288067765	14795470.891973764
6321.218475812449	14714136.524159525
6438.8574272404185	14646482.868090793
6558.685659571435	14577570.16597095
6680.743915695614	14507374.98673875
6805.073696735206	14435873.463276913
6931.717276155407	14363041.284297034
7060.717714137772	14288853.68607351
7192.118872221193	14213285.444023583
7325.96542821523	14136310.86413072
7462.302891391108	14057903.774208367
7601.17761795533	13978037.515001124
7742.636826811269	13896684.931120312
7886.728615614156	13813818.361810848
8033.501977124735	13740146.885655956
8183.00681586739	13671960.223828612
8335.293965098195	13602504.596622288
8490.415204088747	13531756.388375372
8648.423275731726	13459691.543934742
8809.37190447399	13386285.560476817
8973.31581458352	13311513.479176264
9140.310748756232	13235349.876719797
9310.413487069076	13157768.856661925
9483.681866285926	13078744.040619895
9660.174799522645	12998248.559304781
9839.952296278227	12916255.043385612
10023.075482838643	12834989.484290639
10209.606623060476	12768134.949676137
10399.609139541202	12700036.240796775
10593.1476351837	12630670.20335776
10790.287915161836	12560013.252158958
10991.097009294961	12488041.363075648
11195.643194838794	12414730.064890042
11403.99601970033	12340054.430970851
11616.22632608502	12263989.07079792
11832.40627458378	12186508.121329198
12052.609368708414	12107585.238207012
12276.910479883603	12027193.58680072
12505.385872903913	11945305.833082637
12738.113231864783	11873706.989696242
12975.171686575868	11807554.979997488
13216.641839466038	11740171.870142082
13462.60579298911	11671534.74914662
13713.147177539455	11601620.27965042
13968.351179887397	11530404.689980535
14228.30457214352	11457863.766069133
14493.09574126215	11383972.843220472
14762.81471909391	11308706.7977246
15037.553212997384	11232040.038315097
15317.404637020798	11153946.497467672
15602.46414366368	11074399.622536998
15892.828656229764	10996172.721222349
16188.596901781993	10932505.806375766
16489.86944471065	10867654.039410586
16796.74872092653	10801595.37002727
17109.339072690134	10734307.337566454
17427.746784089173	10665767.063372081
17752.08011717636	10595951.243012404
18082.44934877952	10524836.138356263
18418.96680799711	10452397.569501812
18761.746914391195	10378610.906555124
19110.90621689136	10303451.061255757
19466.56343342263	10226892.478446461
19828.83949127071	10148909.127384195
20197.857568198782	10081914.317147572
20573.743134329114	10020068.654738639
20956.623994804308	9957072.034028865
21346.630333242454	9892903.035488427
21743.8947560008	9827539.840966418
22148.55233726359	9760960.22627242
22560.74066496859	9693141.55362004
22980.599887588487	9624060.763929853
23408.272761782944	9553694.368989013
23843.904700937208	9482018.443465067
24287.643824604504	9409008.616771035
24739.64100886812	9334640.064779174
25200.049937640895	9262125.974557465
25669.027154919517	9203671.017704632
26146.732118010917	9144128.204158315
26633.327251749808	9083477.288720336
27128.978003724646	9021697.649425935
27633.852900531667	8958768.280532096
28148.123605075813	8894667.785375323
28671.964974937695	8829374.369096609
29205.55512182745	8762865.831230886
29749.075472144435	8695119.558158647
30302.71082866393	8626112.515417116
30866.649433372742	8555821.239868188
31441.08303147265	8484221.83172082
32026.206936576502	8423805.256229656
32622.220097116733	8368005.75514364
33229.325163989684	8311167.815847805
33847.72855945983	8253272.112830348
34477.640547344636	8194298.960928444
35119.275304507275	8134228.30863501
35772.850993678774	8073039.731281009
36438.58983763541	8010712.424090861
37116.71819475767	7947225.195108525
37807.466635993485	7882556.457992107
38511.070023255685	7816684.224674178
39227.76758927723	7749586.097885642
39957.803018952654	7684749.432250056
40701.42453219439	7632876.99332407
41458.88496832911	7580039.199483269
42230.441872066716	7526218.085308425
43016.35758106799	7471395.351040796
43816.89931514194	7415552.356360038
44632.33926710397	7358670.1140462505
45462.95469532399	7300729.283524151
46309.02801799736	7241710.164287058
47170.84690917023	7181592.689198499
48048.704396551344	7120356.4176691985
48942.89896114532	7057980.528707022
49853.73463873894	6994443.813837631
50781.5211232767	6941765.737822729
51726.57387216024	6893010.963813893
52689.21421350677	6843348.85516484
53669.76945540476	6792762.526223523
54668.57299720181	6741234.777093045
55685.96444286408	6688748.087783492
56722.28971644549	6635284.612254958
57777.90117970507	6580826.172349716
58853.1577519145	6525354.251611408
59948.42503189408	6468849.988989282
61064.07542232036	6411294.172425219
62200.48825634718	6352667.232321427
63358.04992658254	6296541.1383359805
64537.15401646702	6251857.327272846
65738.20143409586	6206341.942882613
66961.60054853215	6159979.509444162
68207.76732865692	6112754.26323057
69477.1254846024	6064650.147149291
70770.10661181889	6015650.805282535
72087.15033782135	5965739.57732611
73428.70447166759	5914899.492924721
74795.22515621828	5863113.265901875
76187.17702322999	5810363.2883824
77605.0333513357	5756631.624805567
79049.2762269642	5701900.005826803
80520.39670825469	5657271.663394271
82018.8949920221	5615808.040402536
83545.28058382872	5573572.772331648
85100.07247122246	5530551.498735376
86683.79930019773	5486729.591917151
88296.99955494082	5442092.151956479
89940.22174092053	5396624.001642807
91614.0245713852	5350309.681315125
93318.9771573324	5303133.443605487
95055.65920101192	5255079.248084752
96824.66119303115	5206130.75580867
98626.5846131283	5156271.323762446
100462.04213468132	5108983.287623077
102331.65783302448	5071410.386630168
104236.06739764012	5033138.247556528
106175.9183482999	4994153.857462493
108151.87025522892	4954443.96123538
110164.59496336569	4913995.0570826065
112214.77682079801	4872793.391940926
114303.11291144785	4830824.95680025
116430.31329208757	4788075.481940428
118597.10123376705	4744530.432079381
120804.21346773289	4700175.001430972
123052.40043592616	4654994.108670854
125342.42654613995	4608972.3918086765
127675.07043192645	4572017.8193655955
130051.12521734099	4537495.083078333
132471.39878661174	4502329.87279452
134936.71405883064	4466510.231963752
137447.90926775365	4430023.981522198
140005.8382468096	4392858.715751575
142611.37071941295	4355001.798061063
145265.39259467812	4316440.356690754
147968.80626863963	4277161.280335085
150722.53093107554	4237151.213684865
153527.5028780421	4196396.552886335
156384.67583022476	4154883.44091569
159295.0212572123	4115873.4548947415
162259.5287078087	4084853.441120322
165279.2061464897	4053256.139611317
168355.08029612005	4021070.8069447656
171488.19698705408	3988286.4997607567
174679.62151272455	3954892.07104161
177930.43899185772	3920876.1663217396
181241.75473742394	3886227.219827019
184614.69463245454	3850933.450542314
188050.40551285836	3814982.858205767
191550.0555573528	3778363.2192286323
195114.83468466165	3741062.082539083
198745.9549580986	3703066.7653487264
202444.65099768018	3672980.823121527
206212.18039991445	3644681.571081175
210049.8241653915	3615855.665145069
213958.88713434213	3586493.304194589
217940.6984302958	3556584.5047106394
221996.61191199525	3526119.0973791378
226128.00663372793	3495086.723633319
230336.2873142131	3463476.83213175
234622.88481422624	3431278.6751707257
238989.25662310526	3398481.305029943
243436.8873543108	3365073.570250181
247967.289250216	3331044.1118416325
252582.00269627848	3299354.6164396056
257282.59674479323	3274077.269808374
262070.66964838552	3248329.507455241
266947.8494034318	3222102.574863586
271915.7943036019	3195387.554593725
276976.1935036891	3168175.3632509243
282130.76759394706	3140456.7483969177
287381.2691851069	3112222.285403987
292729.4835042813	3083462.3742505005
298177.22900196735	3054167.2362567717
303726.3579703311	3024326.91076024
309378.75717301364	2993931.2517287075
315136.34848664823	2962969.9243105925
321001.08955431683	2938764.9358309517
326974.97445117676	2915817.2693617227
333060.03436245886	2892442.5429148204
339258.33827409917	2868632.8088313937
345571.9936762143	2844379.9715453014
352003.1472796675	2819675.784830556
358553.9857459817	2794511.8489974774
365226.7364308175	2768879.6080367556
372023.6681413066	2742770.346710275
378947.09190746717	2716175.1875878586
385999.36176797637	2689085.088028856
393182.87557057705	2661490.837107511
400500.07578736113	2636020.6092602345
407953.45034524484	2615605.1459320555
415545.53347188793	2594809.747357524
423278.90655735444	2573627.3428770644
431156.19903182285	2552050.730244905
439180.0892596086	2530072.5731802746
447353.3054498463	2507685.3988729566
455678.6265841068	2484881.5954424655
464158.8833612772	2461653.4093499347
472796.9591600391	2437992.942761801
481595.79101923504	2413892.1508644964
490558.37063650455	2389342.8391290884
499687.7453854889	2364336.6605250696
508987.0193519675	2345017.480927209
518459.3543892913	2326543.5567147518
528107.971193433	2307725.829629255
537936.1503980698	2288557.901440748
547947.2336900292	2269033.254847113
558144.6249454955	2249145.251258139
568531.7913873753	2228887.128538308
579112.2647641759	2208251.9987076214
589889.6425508494	2187232.8455995973
600867.5891719692	2165822.522475695
612049.837247669	2144013.7495953664
623440.1888627863	2121799.111740838
635042.5168595961	2101472.039140377
646860.7661546321	2085079.5284792061
658898.9550799957	2068381.950405345
671161.1767496272	2051373.6275623403
683651.6004510238	2034048.7769371565
696374.4730628222	2016401.507893912
709334.1204987989	1998425.8201709846
722534.9491787221	1980115.601840861
735981.4475265755	1961464.6272320256
749678.1874966878	1942466.5548121398
763629.8261282243	1923114.925031887
777841.1071286482	1903403.1581286285
792316.8624866261	1883324.5518892226
807062.0141149492	1867984.9347524366
822081.575524054	1853182.4466657962
837380.6535266489	1838104.4817571342
852964.4499741016	1822745.9133559156
868838.2635251193	1807101.5193833956
885007.4914473438	1791165.9805770623
901477.6314524917	1774933.8786820162
918254.2835656281	1758399.6946087142
935343.1520292377	1741557.8065564174
952750.0472427299	1724402.4881017185
970480.8877380306	1706927.9062514985
988541.7021919573	1689128.1194596416
1006938.6314760271	1672980.1621484442
1025677.9307444209	1659867.4575313432
1044765.9715608053	1646510.7232501113
1064209.2440647245	1632905.4178711795
1084014.359178331	1619046.9154441212
1104188.0508541602	1604930.5039287894
1124737.1783647507	1590551.3835931644
1145668.7286348727	1575904.6653813988
1166989.8186171474	1560985.3692514875
1188707.6977119034	1545788.4224819907
1210829.7502320393	1530308.6579472632
1233363.4979137746	1514540.8123605691
1256316.6024741214	1498479.524484512
1279696.8682159416	1486340.4553672182
1303512.2446815087	1474515.497508654
1327770.829355429	1462470.4751722543
1352480.8704178738	1450201.2929206414
1377650.769549055	1437703.7790996502
1403289.084785873	1424973.684419925
1429404.533431761	1412006.6805121081
1456005.9950206485	1398798.358455154
1483102.514336103	1385344.2272772451
1510703.3044866556	1371639.712428813
1538817.7500383465	1357680.1542271473
1567455.410205595	1343460.8062720476
1596626.022101425	1330670.660834404
1626339.5040481905	1320206.7683069124
1656605.9589499151	1309548.1409589888
1687435.6777273756	1298691.1547424926
1718839.1428171454	1287632.1181651265
1750827.0317357269	1276367.2710352924
1783410.220710006	1264892.7831835942
1816599.7883753285	1253204.753160521
1850407.019542302	1241299.2069099308
1884843.4090337954	1229172.0964178175
1919920.6655932867	1216819.2983359445
1955650.715865947	1204236.6125798682
1992045.7084538713	1191419.7609008492
2029118.0180466783	1181834.1068968456
2066880.2496290822	1172405.8524169535
2105345.242766708	1162802.1365169163
2144526.0759716653	1153019.6938298508
2184436.0711494284	1143055.1982198367
2225088.7981283693	1132905.261651002
2266498.079273693	1122566.4330355497
2308677.994187172	1112035.197060349
2351642.884494346	1101307.9729916996
2395407.358720879	1090381.1134578285
2439986.29725955	1079250.9032087629
2485394.857429798	1067913.5578530903
2531648.478631358	1057802.185194783
2578762.8875937983	1049464.7748465128
2626754.1037238385	1040972.2038729986
2675638.4445520453	1032321.5847086069
2725432.531281028	1023509.9760496115
2776153.2944368036	1014534.3818541233
2827817.979625338	1005391.750323408
2880444.1533962977	996078.9728642305
2934049.709215787	986592.8830319144
2988652.873550383	976930.2554537033
3044272.2120643063	967087.8047321073
3100926.6359319235	957062.1843278329
3158635.408267819	946849.9854219136
3217418.1506763715	939291.1457700707
3277294.849923382	931782.9488598487
3338285.8647317644	924135.0231275617
3400411.9327037027	916344.7681960586
3463694.1773717343	908409.53529472
3528154.1153808828	900326.6263588609
3593813.6638046256	892093.2931123505
3660695.147596906	883706.7361331704
3728821.30718283	875164.1039015872
3798215.306190736	866462.4918305922
3868900.7393279755	857598.9412783255
3940901.6404034477	848570.4385420955
4014242.490499326	840586.5334814446
4088948.226294856	833949.8671633356
4165044.248545185	827189.6913557765
4242556.430717777	820303.7075261548
4321511.127789762	813289.574365773
4401935.1852088785	806144.9069937794
4483855.948021181	798867.2761462863
4567301.270168747	791454.2073503874
4652299.523960189	783903.1800828197
4738879.609717651	776211.6269129498
4827070.965603188	768376.9326298245
4916903.577628021	760396.4333529717
5008407.989848212	752267.4156266454
5101615.314749833	746312.2390970096
5196557.243827657	740337.662908848
5293266.058360566	734251.8988412139
5391774.640387494	728052.8776687533
5492116.483887789	721738.4916574716
5594325.706169377	715306.5938480898
5698437.0594691355	708754.9973260497
5804485.942768984	702081.4744779406
5912508.413831869	695283.7562340896
6022541.201461928	688359.5312970469
6134621.717992506	681306.4453557282
6248788.072006888	674122.1002849169
6365079.081295578	667823.0233673354
6483534.286054714	662543.3815726404
6604193.962330305	657165.484745782
6727099.135712336	651687.5043438951
6852291.595284057	646107.577794618
6979813.907830667	640423.8078628004
7109709.432312423	634634.2620054258
7242022.334607315	628736.971714518
7376797.60252773	622729.931847838
7514081.061116962	616611.0999471053
7653919.388230155	610378.3955435434
7796360.130405221	604029.6994505009
7941451.71902934	597562.8530428968
8089243.486805938	592873.9468426974
8239785.684528512	588122.0305419957
8393129.498166373	583281.6802703701
8549327.066268368	578351.2502565762
8708431.497690724	573329.0641012825
8870496.889654402	568213.4142070842
9035578.34613892	563002.5611978965
9203731.99661823	557694.7333275495
9375015.01514529	552288.1258773772
9549485.639791967	546780.900542591
9727203.192450536	541171.1848072368
9908228.099003786	535457.071307521
10092621.909870483	530489.8705925132
10280447.320933098	526291.3858322664
10471768.194855202	522014.766556234
10666649.582795387	517658.5586677822
10865157.746525371	513221.28100929176
11067360.180959744	508701.4248585469
11273325.63710487	504097.4534157566
11483124.14543511	499407.80128102284
11696827.039703846	494630.87392208923
11914506.981197748	489765.0471321832
12136237.983442418	484808.66647776694
12362095.437367693	479760.0467360147
12592156.13694151	474636.40597782563
12826498.3052806	470927.1173535376
13065201.621247198	467148.798236794
13308347.24654076	463300.16395838384
13556017.853293689	459379.9059411847
13808297.652180923	455386.69125523017
14065272.421052363	451319.16216450074
14327029.534098294	447175.93566527846
14593657.991557576	442955.6030159103
14865248.449978571	438656.72925782314
15141893.25304352	434277.85272761906
15423686.462966273	429817.48456009565
15710723.892474487	425274.10818201647
16003103.137387017	421358.55454197415
16300923.609797413	418020.63130240364
16604286.571875297	414620.5887433772
16913295.17029647	411157.2708137898
17228054.471313924	407629.4999482285
17548671.49648152	404036.0766665873
17875255.259042352	400375.779166233
18207916.800994623	396647.36290657526
18546769.230846975	392849.5601859133
18891927.762076646	388981.0797104008
19243509.75230332	385040.6061549935
19601634.743191857	381026.79971622553
19966424.501097932	376983.4551909435
20338003.0584698	374034.7047583517
20716496.75602067	371031.0775784618
21102034.285685964	367971.55238566874
21494746.734379806	364855.0889084416
