# Frequency (Hz)	Imaginary Part (Ohm)
1000.0	0.0014226927737
1018.6101701559753	0.0014375926847233155
1037.566678745186	0.0014527698856260842
1056.875971184804	0.001468229536820144
1076.5446128423157	0.0014839768947534783
1096.5792912678098	0.0015000173136974582
1116.9868184678226	0.0015163562475673585
1137.7741332214914	0.001532999251776746
1158.9483034398106	0.001549951985126376
1180.5165285688054	0.0015672202117282524
1202.4861420374123	0.0015848098029654807
1224.8646137509306	0.0016027267394886076
1247.6595526308697	0.0016209771132491045
1270.8787092020582	0.001638569310378598
1294.529978227916	0.0016555309656774845
1318.6214013947485	0.0016728082802676084
1343.1611700460153	0.0016904071286220938
1368.1576279674719	0.001708333494539006
1393.619274224142	0.001726593473175909
1419.5547660501015	0.0017451932731222908
1445.9729217920194	0.0017641392185105402
1472.882723907502	0.0017834377511662313
1500.2933220192183	0.001803095432798406
1528.2140360258693	0.001823118947230627
1556.654359271062	0.001843515102673553
1585.6239617711371	0.001864235440556698
1615.132693503091	0.0018831610102658567
1645.1905877536624	0.001902438788047601
1675.807864530767	0.0019220753285540922
1706.9949340384078	0.0019420773084206856
1738.7624002162504	0.0019624515285360513
1771.1210643450886	0.00198320491635456
1804.0819287193826	0.002004344528251683
1837.6562003881704	0.0020258775519232434
1871.8552949655793	0.002047811308829305
1906.690840512252	0.0020701532566835476
1942.1746814890264	0.002092910991988974
1978.3188827841643	0.0021160922526207984
2015.1357338155585	0.002138341585463771
2052.6377527092523	0.0021598210163775214
2090.8376905557498	0.0021817001831554305
2129.748535745521	0.002203986524949948
2169.3835183851843	0.002226687619357415
2209.756114795903	0.0022498111849945327
2250.880052095462	0.0022733650841227694
2292.7693128656488	0.0022973573253216185
2335.438139906479	0.0023217960662116027
2378.9010410788933	0.0023466896162279466
2423.1727942376006	0.0023720464394458816
2468.2684522556924	0.002397875157458517
2514.2033481427966	0.0024240411669318633
2560.9931002584594	0.002447944541779425
2608.6536176225477	0.0024722927625001985
2657.2011053245064	0.0024970941077515837
2706.652070033241	0.0025223570102581925
2757.0233256095826	0.002548090059679084
2808.3319988231724	0.00257430200552833
2860.5955351757416	0.0026010017601499494
2913.831704832789	0.0026281984017482015
2968.0586086656026	0.002655901177474267
3023.2946844057765	0.0026841195065703863
3079.5587129142264	0.002712862983572504
3136.8698245668766	0.0027421413815725037
3195.2475057592133	0.0027701294815762625
3254.711605531848	0.0027971978694650602
3315.282342319423	0.002824770004658316
3376.9803108250912	0.002852855261979084
3439.8264890229243	0.0028814631907174634
3503.8422452906757	0.002910603517877477
3569.0493456752292	0.0029402861514843366
3635.4699612933177	0.0029705211839532977
3703.126675869927	0.003001318895521179
3772.0424934169973	0.003032689757741751
3842.240846055061	0.0030646444370461905
3913.745601980384	0.003097193798369763
3986.581073580439	0.003130073841645111
4060.7720257003657	0.003160141826469478
4136.343684063274	0.003190769381607673
4213.321743847289	0.003221966920758452
4291.732378422157	0.0032537450514212737
4371.602248248501	0.0032861145785029683
4452.958509942655	0.003319086507991525
4535.828825510186	0.003352672050698232
4620.241371751313	0.0033868826260694935
4706.224849841281	0.003421729866069546
4793.808495089106	0.0034572256191354655
4883.02208687788	0.003493381954205759
4973.895958790063	0.003530211164823925
5066.461008921268	0.0035652870970198395
5160.7487103859075	0.003599287680898602
5256.791122018419	0.0036339210214287503
5354.620899273607	0.003669198894319236
5454.271305329836	0.003705133294426955
5555.7762223988775	0.003741736439835129
5659.170163246242	0.0037790207760075934
5764.488282925873	0.0038169989800203807
5871.766390733255	0.003855683964872065
5981.040962380945	0.003895088883874322
6092.349152400711	0.00393522713512419
6205.7288067765	0.003976112366059582
6321.218475812449	0.004017293979857805
6438.8574272404185	0.004055022739994551
6558.685659571435	0.0040934536387772155
6680.743915695614	0.004132599743125471
6805.073696735206	0.004172474363136591
6931.717276155407	0.0042130910566110236
7060.717714137772	0.004254463633662188
7192.118872221193	0.004296606161412068
7325.96542821523	0.004339532968774173
7462.302891391108	0.00438325865132554
7601.17761795533	0.0044277980762693755
7742.636826811269	0.004473166387490065
7886.728615614156	0.004519379010702262
8033.501977124735	0.00456324419011262
8183.00681586739	0.004605877704548202
8335.293965098195	0.00464930463594178
8490.415204088747	0.004693539749917945
8648.423275731726	0.004738598086892074
8809.37190447399	0.004784494967184236
8973.31581458352	0.004831245996228264
9140.310748756232	0.00487886706987777
9310.413487069076	0.0049273743798109015
9483.681866285926	0.004976784419035699
9660.174799522645	0.005027113987497882
9839.952296278227	0.005078380197793023
10023.075482838643	0.005129870335261162
10209.606623060476	0.005177160298830104
10399.609139541202	0.005225330336667728
10593.1476351837	0.005274396827105933
10790.287915161836	0.0053243764532801465
10991.097009294961	0.005375286208801795
11195.643194838794	0.005427143403536307
11403.99601970033	0.005479965669488634
11616.22632608502	0.005533770966798356
11832.40627458378	0.005588577589846307
12052.609368708414	0.005644404173474854
12276.910479883603	0.00570126969932396
12505.385872903913	0.0057591935022851225
12738.113231864783	0.005814007717739147
12975.171686575868	0.00586743882927506
13216.641839466038	0.0059218643028882785
13462.60579298911	0.005977302643826265
13713.147177539455	0.006033772701722267
13968.351179887397	0.006091293677004431
14228.30457214352	0.006149885127424133
14493.09574126215	0.006209566974705831
14762.81471909391	0.006270359511320672
15037.553212997384	0.0063322834073861215
15317.404637020798	0.00639535971769407
15602.46414366368	0.00645960988886966
15892.828656229764	0.006523958743464747
16188.596901781993	0.006583231040242947
16489.86944471065	0.0066436064045497165
16796.74872092653	0.006705105364659465
17109.339072690134	0.006767748830881272
17427.746784089173	0.006831558102668625
17752.08011717636	0.006896554875861476
18082.44934877952	0.006962761250063033
18418.96680799711	0.007030199736153887
18761.746914391195	0.007098893263945955
19110.90621689136	0.007168865189978846
19466.56343342263	0.007240139305461359
19828.83949127071	0.007312739844360709
20197.857568198782	0.007381249434445355
20573.743134329114	0.007448235967261862
20956.623994804308	0.00751646913085224
21346.630333242454	0.0075859721252273275
21743.8947560008	0.0076567685821540745
22148.55233726359	0.00772888257319067
22560.74066496859	0.007802338617871082
22980.599887588487	0.007877161692041983
23408.272761782944	0.007953377236354805
23843.904700937208	0.008031011164915811
24287.643824604504	0.008110089874097214
24739.64100886812	0.008190640251512196
25200.049937640895	0.00827109023561579
25669.027154919517	0.008345427237783108
26146.732118010917	0.008421147664209636
26633.327251749808	0.008498277260656245
27128.978003724646	0.008576842252016787
27633.852900531667	0.008656869351234848
28148.123605075813	0.00873838576838646
28671.964974937695	0.008821419219931759
29205.55512182745	0.008905997938138953
29749.075472144435	0.008992150680683566
30302.71082866393	0.00907990674042632
30866.649433372742	0.009169295955373124
31441.08303147265	0.009260348718820189
32026.206936576502	0.009346039748501355
32622.220097116733	0.009430088430320664
33229.325163989684	0.009515701272409992
33847.72855945983	0.009602907384058161
34477.640547344636	0.009691736416282735
35119.275304507275	0.009782218571911796
35772.850993678774	0.009874384615853209
36438.58983763541	0.00996826588555495
37116.71819475767	0.01006389430166032
37807.466635993485	0.010161302378861144
38511.070023255685	0.010260523236953246
39227.76758927723	0.010361590612097477
39957.803018952654	0.010462254509794154
40701.42453219439	0.01055556963121823
41458.88496832911	0.01065062136293012
42230.441872066716	0.010747442023542792
43016.35758106799	0.010846064533124089
43816.89931514194	0.010946522424389891
44632.33926710397	0.011048849854105662
45462.95469532399	0.011153081614700067
46309.02801799736	0.011259253146094795
47170.84690917023	0.011367400547754506
48048.704396551344	0.011477560590961017
48942.89896114532	0.011589770731315993
49853.73463873894	0.011704069121476203
50781.5211232767	0.011811351655397498
51726.57387216024	0.011916907318425948
52689.21421350677	0.012024427390304269
53669.76945540476	0.012133948429015431
54668.57299720181	0.012245507672892664
55685.96444286408	0.012359143053280928
56722.28971644549	0.012474893207433965
57777.90117970507	0.012592797491651358
58853.1577519145	0.012712895994660156
59948.42503189408	0.012835229551245428
61064.07542232036	0.012959839756134538
62200.48825634718	0.013086768978139813
63358.04992658254	0.013212845242486122
64537.15401646702	0.013330090806610219
65738.20143409586	0.0134495183306327
66961.60054853215	0.013571168421198548
68207.76732865692	0.01369508244064933
69477.1254846024	0.013821302521086784
70770.10661181889	0.013949871578698283
72087.15033782135	0.014080833328348724
73428.70447166759	0.014214232298444084
74795.22515621828	0.014350113846071566
76187.17702322999	0.01448852417242144
77605.0333513357	0.014629510338496025
79049.2762269642	0.0147731202811109
80520.39670825469	0.014907554113617801
82018.8949920221	0.015040233409604767
83545.28058382872	0.015175381889866215
85100.07247122246	0.01531304550634165
86683.79930019773	0.015453271066143973
88296.99955494082	0.01559610624747444
89940.22174092053	0.015741599615833744
91614.0245713852	0.015889800640534763
93318.9771573324	0.016040759711522756
95055.65920101192	0.016194528156508424
96824.66119303115	0.016351158258419894
98626.5846131283	0.016510703273179505
100462.04213468132	0.016668741324138574
102331.65783302448	0.016816167646962775
104236.06739764012	0.016966337598740208
106175.9183482999	0.01711930223887253
108151.87025522892	0.01727511357698558
110164.59496336569	0.01743382459061313
112214.77682079801	0.01759548924320991
114303.11291144785	0.017760162502499725
116430.31329208757	0.017927900359165066
118597.10123376705	0.01809875984588456
120804.21346773289	0.01827279905672465
123052.40043592616	0.01845007716689229
125342.42654613995	0.018630654452855076
127675.07043192645	0.01879923108511549
130051.12521734099	0.01896611603417007
132471.39878661174	0.019136106740523007
134936.71405883064	0.019309261002846117
137447.90926775365	0.01948563769545428
140005.8382468096	0.019665296788323437
142611.37071941295	0.019848299367480976
145265.39259467812	0.0200347076557756
147968.80626863963	0.020224585034033873
150722.53093107554	0.020417996062610293
153527.5028780421	0.02061500650333857
156384.67583022476	0.020815683341891322
159295.0212572123	0.021013916383555875
162259.5287078087	0.021199399029784224
165279.2061464897	0.02138833353961989
168355.08029612005	0.02158078415283189
171488.19698705408	0.021776816304702438
174679.62151272455	0.021976496648275307
177930.43899185772	0.022179893077018877
181241.75473742394	0.022387074747910504
184614.69463245454	0.022598112104950576
188050.40551285836	0.022813076903114477
191550.0555573528	0.02303204223274974
195114.83468466165	0.023255082544427756
198745.9549580986	0.023482273674257783
202444.65099768018	0.02369377271359363
206212.18039991445	0.023903782767525836
210049.8241653915	0.024117701144296164
213958.88713434213	0.024335600578457683
217940.6984302958	0.024557555158165857
221996.61191199525	0.02478364035036925
226128.00663372793	0.025013933026469343
230336.2873142131	0.025248511488457307
234622.88481422624	0.0254874554955378
238989.25662310526	0.02573084629124784
243436.8873543108	0.02597876663108038
247967.289250216	0.026231300810622395
252582.00269627848	0.02648006714374242
257282.59674479323	0.02671352233414783
262070.66964838552	0.026951322165370502
266947.8494034318	0.027193547491915236
271915.7943036019	0.027440280673003116
276976.1935036891	0.027691605600574133
282130.76759394706	0.027947607727811685
287381.2691851069	0.028208374098197448
292729.4835042813	0.02847399337510699
298177.22900196735	0.02874455587195659
303726.3579703311	0.029020153582910345
309378.75717301364	0.029300880214159553
315136.34848664823	0.02958683121578366
321001.08955431683	0.029852271967801512
326974.97445117676	0.030116636261711682
333060.03436245886	0.03038592042011466
339258.33827409917	0.03066021600252582
345571.9936762143	0.030939616272398718
352003.1472796675	0.031224216228835505
358553.9857459817	0.031514112638888044
365226.7364308175	0.03180940407045922
372023.6681413066	0.032110190925817544
378947.09190746717	0.0324165754757348
385999.36176797637	0.03272866189425911
393182.87557057705	0.033046556294135596
400500.07578736113	0.03335883292814058
407953.45034524484	0.0336527441945693
415545.53347188793	0.03395212519967705
423278.90655735444	0.03425707773623126
431156.19903182285	0.0345677054913803
439180.0892596086	0.0348841140819078
447353.3054498463	0.03520641109014384
455678.6265841068	0.035534706100543934
464158.8833612772	0.035869110736948866
472796.9591600391	0.03620973870053832
481595.79101923504	0.03655670580849001
490558.37063650455	0.03691013003335921
499687.7453854889	0.03727013154319052
508987.0193519675	0.037603343577662596
518459.3543892913	0.03793619872316235
528107.971193433	0.038275248359557125
537936.1503980698	0.038620607767376525
547947.2336900292	0.03897239437254045
558144.6249454955	0.039330727786285
568531.7913873753	0.03969572984583197
579112.2647641759	0.04006752465581436
589889.6425508494	0.040446238630473634
600867.5891719692	0.040832000536641794
612049.837247669	0.04122494153752336
623440.1888627863	0.041625195237292675
635042.5168595961	0.042017271522457066
646860.7661546321	0.04238735541193165
658898.9550799957	0.04276432662556137
671161.1767496272	0.04314831333762056
683651.6004510238	0.043539446107728905
696374.4730628222	0.04393785792524249
709334.1204987989	0.04434368425447214
722534.9491787221	0.04475706308074261
735981.4475265755	0.04517813495730872
749678.1874966878	0.04560704305314573
763629.8261282243	0.04604393320162751
777841.1071286482	0.04648895395011199
792316.8624866261	0.046942256610448756
807062.0141149492	0.0473605983339352
822081.575524054	0.04777974310095654
837380.6535266489	0.04820668822341209
852964.4499741016	0.048641578867243816
868838.2635251193	0.04908456289995652
885007.4914473438	0.049535790940894345
901477.6314524917	0.04999541641245318
918254.2835656281	0.050463595592245725
935343.1520292377	0.05094048766623771
952750.0472427299	0.05142625478287278
970480.8877380306	0.05192106210820453
988541.7021919573	0.05242507788205514
1006938.6314760271	0.05291740343942937
1025677.9307444209	0.05338344914953328
1044765.9715608053	0.05385816804960273
1064209.2440647245	0.05434172154917867
1084014.359178331	0.054834274061661234
1104188.0508541602	0.05533599306021186
1124737.1783647507	0.05584704913469601
1145668.7286348727	0.05636761604968559
1166989.8186171474	0.056897870803540654
1188707.6977119034	0.05743799368859098
1210829.7502320393	0.05798816835243722
1233363.4979137746	0.058548581860393134
1256316.6024741214	0.059119424759089885
1279696.8682159416	0.05964468660480274
1303512.2446815087	0.060172533239993074
1327770.829355429	0.060710203190880586
1352480.8704178738	0.06125787927104186
1377650.769549055	0.06181574769624536
1403289.084785873	0.06238399814776647
1429404.533431761	0.06296282383688162
1456005.9950206485	0.06355242157056182
1483102.514336103	0.06415299181838942
1510703.3044866556	0.06476473878071974
1538817.7500383465	0.06538787045811138
1567455.410205595	0.06602259872204887
1596626.022101425	0.06664084899687522
1626339.5040481905	0.06722777627654239
1656605.9589499151	0.06782562637275344
1687435.6777273756	0.06843460256098265
1718839.1428171454	0.06905491189969575
1750827.0317357269	0.06968676530075171
1783410.220710006	0.0703303776011148
1816599.7883753285	0.0709859676359023
1850407.019542302	0.07165375831278967
1884843.4090337954	0.07233397668780249
1919920.6655932867	0.07302685404251759
1955650.715865947	0.073732625962701
1992045.7084538713	0.07445153241841052
2029118.0180466783	0.07511107100125546
2066880.2496290822	0.07577584346824963
2105345.242766708	0.07645298746396963
2144526.0759716653	0.07714273322466991
2184436.0711494284	0.07784531527134135
2225088.7981283693	0.07856097248944982
2266498.079273693	0.07928994821016062
2308677.994187172	0.0800324902930735
2351642.884494346	0.0807888512104972
2395407.358720879	0.08155928813329366
2439986.29725955	0.08234406301831773
2485394.857429798	0.0831434426974862
2531648.478631358	0.08391985714735857
2578762.8875937983	0.08465904873791052
2626754.1037238385	0.08541199680974068
2675638.4445520453	0.08617895737330611
2725432.531281028	0.08696019120346243
2776153.2944368036	0.08775596392812962
2827817.979625338	0.0885665461186082
2880444.1533962977	0.08939221338157717
2934049.709215787	0.0902332464528021
2988652.873550383	0.09108993129258935
3044272.2120643063	0.0919625591830152
3100926.6359319235	0.09285142682696451
3158635.408267819	0.09375683644901404
3217418.1506763715	0.09458499854788666
3277294.849923382	0.09542224170326656
3338285.8647317644	0.09627506609623013
3400411.9327037027	0.09714376169625973
3463694.1773717343	0.09802862386921982
3528154.1153808828	0.09892995347778316
3593813.6638046256	0.09984805698372852
3660695.147596906	0.10078324655214042
3728821.30718283	0.10173584015754834
3798215.306190736	0.1027061616920426
3868900.7393279755	0.10369454107539972
3940901.6404034477	0.10470131436725975
4014242.490499326	0.10567637676868978
4088948.226294856	0.10660735647738097
4165044.248545185	0.10755566187686286
4242556.430717777	0.10852161540118882
4321511.127789762	0.10950554548496529
4401935.1852088785	0.11050778667502248
4483855.948021181	0.11152867974416378
4567301.270168747	0.11256857180703306
4652299.523960189	0.11362781643813609
4738879.609717651	0.11470677379206073
4827070.965603188	0.11580581072593309
4916903.577628021	0.11692530092415225
5008407.989848212	0.1180656250254485
5101615.314749833	0.11910553520120444
5196557.243827657	0.12016001539820181
5293266.058360566	0.12123411965109152
5391774.640387494	0.12232821316689252
5492116.483887789	0.12344266794918936
5594325.706169377	0.12457786292461577
5698437.0594691355	0.1257341840716951
5804485.942768984	0.12691202455207662
5912508.413831869	0.1281117848442144
6022541.201461928	0.12933387287953552
6134621.717992506	0.13057870418113937
6248788.072006888	0.13184670200508158
6365079.081295578	0.13307125022701427
6483534.286054714	0.1342437962224264
6604193.962330305	0.13543816349832918
6727099.135712336	0.1366547581524651
6852291.595284057	0.1378939938401253
6979813.907830667	0.13915629191479637
7109709.432312423	0.14044208157142438
7242022.334607315	0.1417517999923473
7376797.60252773	0.14308589249593986
7514081.061116962	0.14444481268802806
7653919.388230155	0.14582902261611963
7796360.130405221	0.1472389929265042
7941451.71902934	0.14867520302428028
8089243.486805938	0.14998100794023833
8239785.684528512	0.1513091066807074
8393129.498166373	0.15266192156472072
8549327.066268368	0.15403991256391472
8708431.497690724	0.15544354821007747
8870496.889654402	0.1568733057544521
9035578.34613892	0.15832967133000939
9203731.99661823	0.15981314011673725
9375015.01514529	0.16132421651000706
9549485.639791967	0.1628634142920742
9727203.192450536	0.16443125680676937
9908228.099003786	0.16602827713744078
10092621.909870483	0.16756615249806145
10280447.320933098	0.1690429590987539
10471768.194855202	0.1705472493215727
10666649.582795387	0.17207953464140216
10865157.746525371	0.17364033605176113
11067360.180959744	0.17523018424194672
11273325.63710487	0.1768496197774737
11483124.14543511	0.17849919328387348
11696827.039703846	0.1801794656339121
11914506.981197748	0.18189100813829334
12136237.983442418	0.18363440273991055
12362095.437367693	0.18541024221171257
