# Frequency (Hz)	Imaginary Part (Ohm/m)
1000.0	2889703777.8519173
1018.6101701559753	2877721005.108305
1037.566678745186	2865515230.9249935
1056.875971184804	2853082305.207246
1076.544612842316	2840418000.6263533
1096.5792912678098	2827518011.1823034
1116.9868184678226	2814377950.7396903
1137.7741332214914	2800993351.5363793
1158.9483034398106	2787359662.664426
1180.5165285688056	2773472248.522711
1202.4861420374123	2759326387.240793
1224.8646137509306	2744917269.073416
1247.6595526308697	2730239994.7651463
1270.8787092020582	2718215678.5754185
1294.529978227916	2708776733.912977
1318.6214013947485	2699162128.8842754
1343.1611700460153	2689368594.420007
1368.1576279674719	2679392800.61293
1393.6192742241421	2669231355.5856624
1419.5547660501015	2658880804.3374066
1445.9729217920196	2648337627.569213
1472.8827239075017	2637598240.4873786
1500.2933220192183	2626658991.58458
1528.2140360258693	2615516161.398322
1556.654359271062	2604165961.246279
1585.6239617711371	2592686633.381774
1615.1326935030913	2584225319.0336027
1645.1905877536624	2575606538.1856694
1675.8078645307671	2566827360.359619
1706.994934038408	2557884800.5403953
1738.7624002162504	2548775818.161307
1771.1210643450886	2539497316.0701957
1804.0819287193829	2530046139.476376
1837.6562003881704	2520419074.8779716
1871.8552949655793	2510612848.969288
1906.690840512252	2500624127.527856
1942.1746814890264	2490449514.280758
1978.3188827841643	2480085549.749861
2015.1357338155585	2470482704.9176965
2052.6377527092523	2461529630.6023273
2090.83769055575	2452409938.0505295
2129.748535745521	2443120526.4685726
2169.3835183851843	2433658237.3564262
2209.756114795903	2424019853.433838
2250.880052095462	2414202097.546422
2292.7693128656488	2404201631.5513916
2335.438139906479	2394015055.1825542
2378.9010410788933	2383638904.8941855
2423.1727942376006	2373069652.6833863
2468.2684522556924	2362303704.8905234
2514.2033481427966	2351386603.6571507
2560.9931002584594	2341209854.378684
2608.6536176225477	2330843714.0645113
2657.201105324507	2320284658.115229
2706.652070033241	2309529096.3380466
2757.0233256095826	2298573371.7260666
2808.3319988231724	2287413759.2148757
2860.595535175742	2276046464.4159765
2913.8317048327885	2264467622.3266573
2968.058608665602	2252673296.0158463
3023.2946844057765	2240659475.2855163
3079.5587129142264	2228422075.307171
3136.8698245668766	2215956935.2329626
3195.2475057592137	2203789924.55595
3254.711605531848	2191812607.9027524
3315.282342319423	2179612391.348626
3376.9803108250912	2167185126.6884875
3439.8264890229248	2154526588.5184507
3503.8422452906757	2141632472.7991436
3569.0493456752297	2128498395.3922894
3635.4699612933177	2115119890.5700521
3703.126675869927	2101492409.4966395
3772.0424934169973	2087611318.6816542
3842.240846055061	2073471898.4046507
3913.745601980384	2059069341.1103866
3986.581073580439	2044520684.471217
4060.7720257003652	2031219084.7775762
4136.343684063274	2017669940.0502906
4213.321743847289	2003868643.434162
4291.732378422157	1989810502.3396347
4371.602248248502	1975490736.8472614
4452.958509942656	1960904478.0824807
4535.828825510186	1946046766.5601494
4620.241371751313	1930912550.498258
4706.224849841282	1915496684.1002784
4793.808495089107	1899793925.8055308
4883.02208687788	1883798936.5069985
4973.895958790063	1867506277.7359788
5066.461008921268	1852577446.4542608
5160.7487103859075	1838552098.0256534
5256.791122018419	1824265735.4762924
5354.620899273607	1809713501.2889774
5454.271305329837	1794890447.5472867
5555.7762223988775	1779791534.253233
5659.170163246243	1764411627.6136065
5764.488282925873	1748745498.2944334
5871.766390733255	1732787819.642944
5981.040962380944	1716533165.8764563
6092.349152400711	1699976010.2375486
6205.7288067765	1683110723.1149015
6321.218475812449	1666334085.6337988
6438.857427240419	1652901464.9558544
6558.685659571435	1639218860.921453
6680.743915695614	1625281621.2977953
6805.073696735207	1611085007.2732363
6931.7172761554075	1596624191.8460412
7060.717714137772	1581894258.1831527
7192.118872221193	1566890197.9484105
7325.9654282152305	1551606909.5996702
7462.302891391108	1536039196.6542172
7601.17761795533	1520181765.9219089
7742.63682681127	1504029225.7054365
7886.728615614156	1487576083.9670837
8033.501977124734	1473706175.5580394
8183.006815867389	1461423077.5644455
8335.293965098195	1448911389.0271478
8490.415204088747	1436166855.837233
8648.423275731726	1423185144.7160947
8809.37190447399	1409961841.742077
8973.31581458352	1396492450.849689
9140.310748756232	1382772392.3008955
9310.413487069076	1368797001.1279595
9483.681866285928	1354561525.5472984
9660.174799522645	1340061125.3438306
9839.952296278227	1325290870.2252467
10023.075482838643	1310827073.9173868
10209.606623060476	1300201189.0394475
10399.609139541202	1289377554.6358733
10593.147635183701	1278352490.5543427
10790.287915161836	1267122248.1542737
10991.097009294961	1255683009.0322473
11195.643194838794	1244030883.7237034
11403.996019700331	1232161910.38049
11616.226326085018	1220072053.423783
11832.40627458378	1207757202.17195
12052.609368708414	1195213169.4428747
12276.910479883603	1182435690.1302683
12505.385872903913	1169420419.753491
12738.113231864785	1158799819.0801795
12975.171686575868	1149494854.4240565
13216.641839466038	1140016722.7923875
13462.60579298911	1130362201.5182915
13713.147177539457	1120528007.9605112
13968.351179887397	1110510798.3872736
14228.30457214352	1100307166.8393905
14493.095741262152	1089913643.972192
14762.81471909391	1079326695.8759136
15037.553212997384	1068542722.8741324
15317.404637020798	1057558058.2998308
15602.46414366368	1046368967.2486948
15892.828656229764	1035492371.5610715
16188.596901781992	1027391500.9442288
16489.86944471065	1019139871.7467959
16796.74872092653	1010734678.3259349
17109.339072690134	1002173062.8253177
17427.746784089173	993452114.2034241
17752.08011717636	984568867.2437544
18082.44934877952	975520301.5466286
18418.96680799711	966303340.502212
18761.746914391195	956914850.2444378
19110.90621689136	947351638.5854588
19466.563433422634	937610453.9302672
19828.839491270715	927687984.1711228
20197.857568198782	919549148.4268477
20573.743134329117	912270844.8671347
20956.623994804308	904857090.8397285
21346.630333242454	897305365.5883769
21743.8947560008	889613101.4451272
22148.552337263594	881777682.9572868
22560.74066496859	873796445.9981449
22980.599887588487	865666676.8611379
23408.272761782944	857385611.3371613
23843.904700937204	848950433.7747121
24287.643824604504	840358276.1225295
24739.641008868115	831606216.9544328
25200.049937640895	823147218.2504765
25669.02715491952	816700144.9116206
26146.73211801092	810133090.4409213
26633.327251749808	803443821.9690988
27128.978003724646	796630065.0727966
27633.85290053167	789689503.0012528
28148.123605075813	782619775.8885785
28671.9649749377	775418479.9513822
29205.555121827452	768083166.6714507
29749.075472144435	760611341.9632317
30302.71082866393	753000465.3258189
30866.649433372746	745247948.9791458
31441.083031472648	737351156.984125
32026.206936576502	730921334.9289298
32622.220097116733	725112248.4459997
33229.325163989684	719195053.8751729
33847.72855945983	713167739.3065356
34477.64054734464	707028255.388193
35119.275304507275	700774514.6294603
35772.850993678774	694404390.6910955
36438.58983763541	687915717.6623244
37116.71819475767	681306289.3244001
37807.46663599349	674573858.400474
38511.07002325569	667716135.7914901
39227.76758927724	660730789.7978699
39957.803018952654	654034022.3521314
40701.42453219439	648902457.7937421
41458.88496832911	643675393.9457551
42230.44187206672	638351053.550141
43016.357581068	632927626.2737956
43816.89931514195	627403268.0930096
44632.33926710398	621776100.6664765
45462.95469532399	616044210.6966395
46309.02801799737	610205649.2791486
47170.84690917022	604258431.2402112
48048.70439655134	598200534.4616153
48942.898961145314	592029899.1931823
49853.73463873893	585744427.3524333
50781.5211232767	580677854.1921037
51726.57387216025	576061016.955085
52689.21421350677	571358259.5915035
53669.76945540476	566567983.1131836
54668.57299720181	561688558.774508
55685.96444286409	556718327.5186262
56722.28971644549	551655599.4133576
57777.90117970507	546498653.076597
58853.15775191451	541245735.0910239
59948.42503189409	535895059.40792406
61064.07542232036	530444806.7399122
62200.48825634718	524893123.942355
63358.04992658254	519612306.4767106
64537.15401646702	515534012.40581506
65738.20143409586	511379820.588314
66961.60054853215	507148318.5542288
68207.76732865692	502838067.54727334
69477.1254846024	498447602.0356639
70770.10661181889	493975429.2138196
72087.15033782135	489420028.49479383
73428.70447166757	484779850.9932583
74795.2251562183	480053318.9988647
76187.17702322999	475238825.4398083
77605.0333513357	470334733.33640313
79049.2762269642	465339375.24449295
80520.3967082547	461349467.6837561
82018.89499202212	457679887.0750127
83545.28058382872	453942014.94674
85100.07247122246	450134580.3821388
86683.79930019774	446256288.81243265
88296.99955494083	442305821.5766998
89940.22174092053	438281835.4735139
91614.0245713852	434182962.3042429
93318.97715733238	430007808.407844
95055.6592010119	425754954.1870057
96824.66119303113	421422953.625469
98626.5846131283	417010333.7963659
100462.04213468131	412845998.7936911
102331.6578330245	409604565.9978985
104236.06739764012	406302809.58622706
106175.9183482999	402939606.9259209
108151.87025522892	399513814.4918369
110164.59496336569	396024267.47763604
112214.77682079803	392469779.3997335
114303.11291144787	388849141.69388396
116430.31329208757	385161123.3042553
118597.10123376705	381404470.2648569
120804.21346773289	377577905.2731789
123052.40043592616	373680127.25589263
125342.42654613995	369709810.9264745
127675.07043192645	366568085.45315933
130051.12521734099	363651593.35878205
132471.39878661174	360680824.8502702
134936.71405883064	357654769.83432096
137447.90926775365	354572399.4196235
140005.8382468096	351432665.56702477
142611.37071941298	348234500.7331844
145265.39259467812	344976817.50759965
147968.80626863963	341658508.2428726
150722.53093107554	338278444.67809886
153527.5028780421	334835477.5552466
156384.6758302248	331328436.2283962
159295.0212572123	328044933.1102111
162259.5287078087	325468774.7867261
165279.2061464897	322844673.7184921
168355.08029612005	320171737.6828724
171488.19698705408	317449057.8528131
174679.62151272458	314675708.4878365
177930.43899185772	311850746.6192757
181241.75473742394	308973211.7296566
184614.69463245457	306042125.4261124
188050.40551285836	303056491.1077169
191550.05555735278	300015293.6266328
195114.83468466165	296917498.94294786
198745.9549580986	293762053.7730909
202444.65099768018	291288514.8951184
206212.18039991445	288970644.7523206
210049.82416539153	286609638.65176594
213958.88713434216	284204693.8259407
217940.6984302958	281754992.56769097
221996.61191199525	279259701.9521944
226128.00663372796	276717973.55375427
230336.28731421314	274128943.15732914
234622.88481422624	271491730.4646875
238989.25662310526	268805438.7950981
243436.8873543108	266069154.78044963
247967.289250216	263281948.05469286
252582.00269627848	260693213.7595321
257282.5967447932	258645849.5330334
262070.66964838552	256560383.50990808
266947.8494034318	254436106.60923833
271915.7943036019	252272296.55398828
276976.1935036891	250068217.62542504
282130.76759394706	247823120.412964
287381.2691851069	245536241.55936214
292729.4835042813	243206803.50116915
298177.22900196735	240834014.20434487
303726.35797033116	238417066.89496264
309378.7571730137	235955139.78489482
315136.34848664823	233447395.79239675
321001.08955431683	231500148.49843857
326974.9744511768	229658074.40714723
333060.03436245886	227781719.00357726
339258.33827409917	225870444.30667374
345571.9936762143	223923600.46244577
352003.14727966755	221940525.52301013
358553.9857459817	219920545.22151908
365226.7364308176	217862972.74290574
372023.6681413066	215767108.49035722
378947.09190746717	213632239.84744465
385999.3617679763	211457640.93582737
393182.87557057705	209242572.36844334
400500.07578736113	207201769.42925096
407953.4503452449	205574687.38086113
415545.53347188793	203917325.0586929
423278.90655735444	202229118.94169936
431156.19903182285	200509495.0216098
439180.0892596086	198757868.60776332
447353.3054498463	196973644.1283055
455678.6265841069	195156214.92768824
464158.8833612772	193304963.0604015
472796.9591600391	191419259.08086252
481595.7910192351	189498461.82940078
490558.37063650455	187541918.2142542
499687.7453854889	185548962.9895119
508987.01935196744	184016186.58591795
518459.3543892913	182552262.55828
528107.971193433	181061094.65539244
537936.1503980698	179542175.86410102
547947.2336900292	177994989.73565036
558144.6249454955	176419010.2100866
568531.7913873753	174813701.43738946
579112.2647641759	173178517.59527972
589889.6425508494	171512902.70363203
600867.5891719693	169816290.43543622
612049.837247669	168088103.92424098
623440.1888627864	166327755.56801072
635042.5168595962	164719031.93479675
646860.7661546321	163425972.21596947
658898.9550799957	162108848.43575287
671161.1767496273	160767212.75787023
683651.6004510239	159400609.01173455
696374.4730628222	158008572.5373477
709334.1204987989	156590630.02730915
722534.9491787221	155146299.36588722
735981.4475265756	153675089.46509507
749678.1874966876	152176500.0977137
763629.8261282241	150650021.7272116
777841.1071286482	149095135.33449504
792316.8624866261	147511312.2414366
807062.014114949	146304905.39100388
822081.5755240541	145141514.00453785
837380.653526649	143956471.70641187
852964.4499741016	142749375.56947568
868838.2635251193	141519815.16803637
885007.4914473438	140267372.43830937
901477.6314524917	138991621.5362715
918254.2835656282	137692128.69287008
935343.1520292377	136368452.06653655
952750.04724273	135020141.59295523
970480.8877380306	133646738.8320377
988541.7021919574	132247776.81204675
1006938.6314760271	130979743.79563503
1025677.9307444209	129952142.99523717
1044765.9715608052	128905418.36909139
1064209.2440647245	127839214.0195467
1084014.359178331	126753167.42563593
1104188.0508541602	125646909.31981516
1124737.1783647507	124520063.56240866
1145668.7286348727	123372247.01371713
1166989.8186171474	122203069.40374675
1188707.6977119034	121012133.19951227
1210829.7502320395	119799033.46987206
1233363.4979137748	118563357.74784707
1256316.6024741214	117304685.89037748
1279696.8682159416	116355247.00442019
1303512.244681509	115430696.76271093
1327770.8293554292	114488940.4836857
1352480.870417874	113529657.96006238
1377650.769549055	112552523.02544667
1403289.084785873	111557203.4434325
1429404.533431761	110543360.79463749
1456005.9950206485	109510650.36163703
1483102.5143361029	108458721.01175654
1510703.3044866556	107387215.07768261
1538817.7500383463	106295768.23585257
1567455.410205595	105184009.38257986
1596626.022101425	104184586.21596512
1626339.5040481905	103367950.84049922
1656605.9589499151	102536117.74174042
1687435.6777273756	101688804.08747244
1718839.1428171457	100825721.78192304
1750827.0317357269	99946577.36780865
1783410.2207100063	99051071.92655614
1816599.7883753285	98138900.97666611
1850407.019542302	97209754.37018739
1884843.4090337954	96263316.18726224
1919920.6655932867	95299264.62871064
1955650.715865947	94317271.9066155
1992045.7084538713	93317004.13286997
2029118.018046678	92569869.62584953
2066880.2496290822	91835129.88915512
2105345.242766708	91086716.5209404
2144526.0759716653	90324375.05259636
2184436.0711494284	89547846.2798093
2225088.7981283693	88756866.17442976
2266498.079273693	87951165.7946991
2308677.994187172	87130471.19380684
2351642.884494346	86294503.32674608
2395407.3587208795	85442977.95543419
2439986.29725955	84575605.55207016
2485394.8574297987	83692091.20069091
2531648.478631358	82904431.70017512
2578762.8875937983	82255452.75670739
2626754.1037238385	81594396.20467392
2675638.4445520453	80921037.27772447
2725432.531281028	80235147.02656844
2776153.294436804	79536492.24113
2827817.979625338	78824835.37125441
2880444.1533962977	78099934.44593762
2934049.7092157872	77361542.99105453
2988652.8735503824	76609409.94555436
3044272.212064306	75843279.57609741
3100926.6359319235	75062891.39010337
3158635.408267819	74267980.04718012
3217418.1506763715	73680099.55270933
3277294.849923382	73096203.57397182
3338285.8647317644	72501441.19171657
3400411.9327037027	71895610.18032531
3463694.1773717343	71278504.55072616
3528154.115380883	70649914.48035602
3593813.6638046256	70009626.24181795
3660695.147596906	69357422.13021173
3728821.30718283	68693080.38911225
3798215.306190736	68016375.13516903
3868900.7393279755	67327076.28130457
3940901.6404034477	66624949.458481364
4014242.490499326	66004226.246290036
4088948.226294856	65488484.62274558
4165044.248545185	64963144.95983035
4242556.430717777	64428028.63639863
4321511.127789762	63882953.707134604
4401935.185208879	63327734.84068916
4483855.948021182	62762183.25666548
4567301.270168747	62186106.66143102
4652299.523960189	61599309.182736434
4738879.609717651	61001591.303116225
4827070.965603188	60392749.79205097
4916903.577628021	59772577.63686691
5008407.989848212	59140863.97234873
5101615.314749834	58678336.71324404
5196557.243827658	58214316.66942202
5293266.058360566	57741661.133628644
5391774.640387494	57260209.39788908
5492116.483887789	56769797.76342542
5594325.706169377	56270259.484997965
5698437.059469136	55761424.71420955
5804485.942768984	55243120.441755444
5912508.413831869	54715170.438598506
6022541.201461928	54177395.196048856
6134621.717992506	53629611.86472973
6248788.072006888	53071634.19240616
6365079.081295578	52582500.41160528
6483534.286054714	52172642.620235406
6604193.962330305	51755157.30562829
6727099.135712337	51329902.518278755
6852291.595284058	50896733.666977
6979813.907830667	50455503.46964622
7109709.432312424	50006061.903265245
7242022.334607315	49548256.15285866
7376797.602527731	49081930.55953866
7514081.061116962	48606926.567578904
7653919.388230155	48123082.670503944
7796360.130405221	47630234.35617561
7941451.71902934	47128214.05085643
8089243.486805938	46764346.690860495
8239785.684528511	46395592.00031988
8393129.498166373	46019974.722242445
8549327.066268368	45637367.14270655
8708431.497690724	45247639.17101245
8870496.889654404	44850658.29545061
9035578.34613892	44446289.53824591
9203731.99661823	44034395.40966382
9375015.015145289	43614835.861262605
9549485.639791965	43187468.238275096
9727203.192450536	42752147.23110462
9908228.099003788	42308724.82591823
10092621.909870485	41923310.95770966
10280447.320933098	41597598.89451239
10471768.194855202	41265825.27439717
10666649.582795387	40927877.290758334
10865157.746525373	40583640.0376401
11067360.180959744	40232996.470667295
11273325.63710487	39875827.36724904
11483124.145435112	39512011.28604173
11696827.039703846	39141424.525657676
11914506.981197748	38763941.08260531
12136237.983442418	38379432.608446635
12362095.43736769	37987768.3661575
12592156.13694151	37590284.942998245
12826498.3052806	37302591.439761445
13065201.621247198	37009543.91147665
13308347.24654076	36711042.71882664
13556017.853293689	36406986.36818969
13808297.652180923	36097271.47713038
14065272.421052365	35781792.739248626
14327029.534098294	35460442.8883743
14593657.991557576	35133112.66209556
14865248.449978571	34799690.76460862
15141893.25304352	34460063.82887571
15423686.462966274	34114116.37807928
15710723.89247449	33761730.78635848
16003103.137387017	33458064.48096552
16300923.60979741	33199222.811632976
16604286.571875297	32935564.054790694
16913295.17029647	32666998.563620467
17228054.471313924	32393435.022961542
17548671.49648152	32114780.418262452
17875255.259042356	31830940.003955193
18207916.800994623	31541817.271240544
18546769.230846975	31247313.9152741
18891927.762076642	30947329.801741626
19243509.75230332	30641762.932812184
19601634.743191857	30330509.41245797
19966424.501097932	30016966.622716997
20338003.0584698	29788338.179019313
20716496.75602067	29555454.921081915
21102034.285685964	29318237.6660878
21494746.734379806	29076605.757614333
