# Frequency (Hz)	Imaginary Part (Ohm)
1000.0	7.155539270829837
1018.6101701559753	7.20910900294879
1037.566678745186	7.26367567689769
1056.875971184804	7.319257845933621
1076.544612842316	7.375874408592952
1096.5792912678098	7.433544615117016
1116.9868184678226	7.4922880739974245
1137.7741332214914	7.552124758643151
1158.9483034398106	7.6130750141717
1180.5165285688056	7.675159564326689
1202.4861420374123	7.738399518524116
1224.8646137509306	7.802816379029813
1247.6595526308697	7.8684320482704395
1270.8787092020582	7.922547762387652
1294.529978227916	7.9654579760988575
1318.6214013947485	8.009166756188657
1343.1611700460153	8.053688964113237
1368.1576279674719	8.099039737903015
1393.6192742241421	8.145234497309724
1419.5547660501015	8.19228894904931
1445.9729217920196	8.240219092142361
1472.8827239075017	8.289041223353975
1500.2933220192183	8.338771942734816
1528.2140360258693	8.389428159265313
1556.654359271062	8.441027096604902
1585.6239617711371	8.493103396302244
1615.1326935030913	8.527141014737976
1645.1905877536624	8.5618120790445
1675.8078645307671	8.597128377757258
1706.994934038408	8.63310191879834
1738.7624002162504	8.669744933559308
1771.1210643450886	8.707069881060008
1804.0819287193829	8.745089452184756
1837.6562003881704	8.783816573997393
1871.8552949655793	8.823264414136618
1906.690840512252	8.863446385293114
1942.1746814890264	8.90437614977004
1978.3188827841643	8.946067624128323
2015.1357338155585	8.983153497954579
2052.6377527092523	9.01625608343696
2090.83769055575	9.049974713667773
2129.748535745521	9.084320853344607
2169.3835183851843	9.119306180525028
2209.756114795903	9.154942590597239
2250.880052095462	9.191242200324641
2292.7693128656488	9.228217351965665
2335.438139906479	9.265880617470275
2378.9010410788933	9.304244802754551
2423.1727942376006	9.343322952054868
2468.2684522556924	9.38312835236304
2514.2033481427966	9.423647610741472
2560.9931002584594	9.464404577641268
2608.6536176225477	9.505920038630107
2657.201105324507	9.548208109412055
2706.652070033241	9.591283168386818
2757.0233256095826	9.635159861538583
2808.3319988231724	9.679853107415786
2860.595535175742	9.725378102203583
2913.8317048327885	9.771750324890734
2968.058608665602	9.8189855425326
3023.2946844057765	9.867099815612137
3079.5587129142264	9.916109503500618
3136.8698245668766	9.966031270019991
3195.2475057592137	10.019973944177954
3254.711605531848	10.07734754601531
3315.282342319423	10.135788880345322
3376.9803108250912	10.195317817851361
3439.8264890229248	10.255954599013586
3503.8422452906757	10.317719840990957
3569.0493456752297	10.380634544631247
3635.4699612933177	10.444720101611596
3703.126675869927	10.509998301711894
3772.0424934169973	10.576491340223528
3842.240846055061	10.644221825496059
3913.745601980384	10.71321278662425
3986.581073580439	10.783973666399943
4060.7720257003652	10.862100828710961
4136.343684063274	10.94168195080639
4213.321743847289	11.022744091125219
4291.732378422157	11.105314811668583
4371.602248248502	11.189422187371163
4452.958509942656	11.275094815646948
4535.828825510186	11.362361826112645
4620.241371751313	11.45125289049212
4706.224849841282	11.541798232705037
4793.808495089107	11.634028639143368
4883.02208687788	11.727975469139075
4973.895958790063	11.823670665626613
5066.461008921268	11.922688745178165
5160.7487103859075	12.024642259601697
5256.791122018419	12.128493146276648
5354.620899273607	12.234276715623475
5454.271305329837	12.342028935195556
5555.7762223988775	12.451786441908547
5659.170163246243	12.563586554497363
5764.488282925873	12.677467286204916
5871.766390733255	12.79346735770704
5981.040962380944	12.911626210277921
6092.349152400711	13.031984019200578
6205.7288067765	13.154581707426882
6321.218475812449	13.278972554993882
6438.857427240419	13.401241935412465
6558.685659571435	13.525786769805501
6680.743915695614	13.652649404758634
6805.073696735207	13.78187297493468
6931.7172761554075	13.913501417739873
7060.717714137772	14.047579488263029
7192.118872221193	14.184152774492812
7325.9654282152305	14.323267712818087
7462.302891391108	14.46497160381683
7601.17761795533	14.609312628338834
7742.63682681127	14.756339863887671
7886.728615614156	14.906103301307645
8033.501977124734	15.050177756020748
8183.006815867389	15.1915213755262
8335.293965098195	15.335495423841122
8490.415204088747	15.48214885369322
8648.423275731726	15.63153152882883
8809.37190447399	15.78369424096706
8973.31581458352	15.93868872706958
9140.310748756232	16.096567686931714
9310.413487069076	16.25738480110092
9483.681866285928	16.42119474912882
9660.174799522645	16.588053228162746
9839.952296278227	16.758016971883464
10023.075482838643	16.928500184001155
10209.606623060476	17.083479420932292
10399.609139541202	17.241342847833344
10593.147635183701	17.40214413997043
10790.287915161836	17.56593797151549
10991.097009294961	17.732780034136102
11195.643194838794	17.902727055931273
11403.996019700331	18.075836820719537
11616.226326085018	18.252168187686173
11832.40627458378	18.431781111395892
12052.609368708414	18.61473666217806
12276.910479883603	18.80109704689129
12505.385872903913	18.990925630074337
12738.113231864785	19.168334746889016
12975.171686575868	19.339890636495657
13216.641839466038	19.514639210399135
13462.60579298911	19.692639884997494
13713.147177539457	19.873953182437987
13968.351179887397	20.058640751195387
14228.30457214352	20.246765387033054
14493.095741262152	20.438391054354195
14762.81471909391	20.633582907950455
15037.553212997384	20.832407315155177
15317.404637020798	21.034931878409143
15602.46414366368	21.24122545824603
15892.828656229764	21.447521731954716
16188.596901781992	21.635715684677923
16489.86944471065	21.827411958883612
16796.74872092653	22.022675733370537
17109.339072690134	22.221573399925962
17427.746784089173	22.424172585899605
17752.08011717636	22.630542177197707
18082.44934877952	22.840752341704864
18418.96680799711	23.05487455314201
18761.746914391195	23.272981615368177
19110.90621689136	23.495147687134594
19466.563433422634	23.721448307299493
19828.839491270715	23.95196042051204
20197.857568198782	24.169534595649854
20573.743134329117	24.38230019001689
20956.623994804308	24.599025388298433
21346.630333242454	24.819783879397104
21743.8947560008	25.044650723578478
22148.552337263594	25.273702377992503
22560.74066496859	25.50701672266968
22980.599887588487	25.74467308700113
23408.272761782944	25.986752276711467
23843.904700937204	26.233336601333505
24287.643824604504	26.484509902194556
24739.641008868115	26.740357580923266
25200.049937640895	26.996069475326642
25669.02715491952	27.23323959080581
26146.73211801092	27.47482348248993
26633.327251749808	27.720903291505234
27128.978003724646	27.971562687638265
27633.85290053167	28.22688689778452
28148.123605075813	28.48696273492657
28671.9649749377	28.751878627651262
29205.555121827452	29.021724650216584
29749.075472144435	29.29659255317779
30302.71082866393	29.57657579458346
30866.649433372746	29.861769571752564
31441.083031472648	30.15227085364219
32026.206936576502	30.426253778472745
32622.220097116733	30.695277577765754
33229.325163989684	30.969307955739552
33847.72855945983	31.24843808567541
34477.64054734464	31.532762874825
35119.275304507275	31.82237899668023
35772.850993678774	32.11738492384313
36438.58983763541	32.41788096150749
37116.71819475767	32.723969281564045
37807.46663599349	33.03575395733957
38511.07002325569	33.35334099898331
39227.76758927724	33.67683838951141
39957.803018952654	33.99915127086252
40701.42453219439	34.29837585803635
41458.88496832911	34.6031690656923
42230.44187206672	34.913634526805104
43016.357581068	35.229877802976816
43816.89931514195	35.55200642032873
44632.33926710398	35.88012990606167
45462.95469532399	36.21435982569626
46309.02801799737	36.55480982100649
47170.84690917022	36.90159564865907
48048.70439655134	37.2548352195719
48942.898961145314	37.61464863900526
49853.73463873893	37.98115824739867
50781.5211232767	38.32552878602795
51726.57387216025	38.664514389762985
52689.21421350677	39.00980857326391
53669.76945540476	39.36152874027366
54668.57299720181	39.71979447943875
55685.96444286409	40.08472760497076
56722.28971644549	40.45645219806451
57777.90117970507	40.835094649086855
58853.15775191451	41.220783700551
59948.42503189409	41.613650490890194
61064.07542232036	42.01382859904623
62200.48825634718	42.42145408988779
63358.04992658254	42.8264620161359
64537.15401646702	43.2035358744948
65738.20143409586	43.58762714151912
66961.60054853215	43.978866412378196
68207.76732865692	44.3773867126397
69477.1254846024	44.783323543499634
70770.10661181889	45.196814927854454
72087.15033782135	45.61800145723014
73428.70447166757	46.047026339584924
74795.2251562183	46.48403544800153
76187.17702322999	46.92917737028541
77605.0333513357	47.38260345948656
79049.2762269642	47.844467885360906
80520.3967082547	48.277227279022355
82018.89499202212	48.70449741185927
83545.28058382872	49.139719114570795
85100.07247122246	49.58304036722536
86683.79930019774	50.03461190382558
88296.99955494083	50.49458726355953
89940.22174092053	50.96312284300573
91614.0245713852	51.44037794930951
93318.97715733238	51.926514854349406
95055.6592010119	52.42169884991119
96824.66119303113	52.92609830388891
98626.5846131283	53.43988471753177
100462.04213468131	53.94895737675334
102331.6578330245	54.424280772973944
104236.06739764012	54.90845001847733
106175.9183482999	55.401629736023814
108151.87025522892	55.90398761203138
110164.59496336569	56.41569445359059
112214.77682079803	56.93692424654118
114303.11291144787	57.46785421462896
116430.31329208757	58.00866487976375
118597.10123376705	58.55954012339892
120804.21346773289	59.1206672490528
123052.40043592616	59.69223704599423
125342.42654613995	60.27444385411277
127675.07043192645	60.81840186909425
130051.12521734099	61.35705316815722
132471.39878661174	61.90572885955043
134936.71405883064	62.464615498920914
137447.90926775365	63.03390311374798
140005.8382468096	63.613785267954675
142611.37071941298	64.20445912772163
145265.39259467812	64.80612552852547
147968.80626863963	65.41898904342541
150722.53093107554	66.04325805262002
153527.5028780421	66.67914481429885
156384.6758302248	67.32686553681252
159295.0212572123	67.96686747781621
162259.5287078087	68.56616807361054
165279.2061464897	69.17662175546724
168355.08029612005	69.79843608421551
171488.19698705408	70.43182248342734
174679.62151272458	71.07699631130292
177930.43899185772	71.73417693389544
181241.75473742394	72.40358779969769
184614.69463245457	73.08545651561663
188050.40551285836	73.780014924363
191550.05555735278	74.48749918327934
195114.83468466165	75.2081498446368
198745.9549580986	75.9422119374252
202444.65099768018	76.62610245390691
206212.18039991445	77.30533623776701
210049.82416539153	77.99721067792035
213958.88713434216	78.7019610191315
217940.6984302958	79.41982688411017
221996.61191199525	80.15105235498508
226128.00663372796	80.89588605629554
230336.28731421314	81.6545812395252
234622.88481422624	82.42739586921128
238989.25662310526	83.21459271065494
243436.8873543108	84.01643941926393
247967.289250216	84.83320863155933
252582.00269627848	85.63801642604739
257282.5967447932	86.39383732588468
262070.66964838552	87.16372418127547
266947.8494034318	87.94793876204577
271915.7943036019	88.74674770960317
276976.1935036891	89.56042262759665
282130.76759394706	90.38924017426561
287381.2691851069	91.23348215650645
292729.4835042813	92.09343562568944
298177.22900196735	92.96939297526032
303726.35797033116	93.86165204015597
309378.7571730137	94.77051619807257
315136.34848664823	95.69629447261676
321001.08955431683	96.5563716753252
326974.9744511768	97.41314029184348
333060.03436245886	98.28585351809934
339258.33827409917	99.1748080859932
345571.9936762143	100.08030624965662
352003.14727966755	101.00265588822153
358553.9857459817	101.94217061050362
365226.7364308176	102.89916986163134
372023.6681413066	103.87397903166168
378947.09190746717	104.86692956621599
385999.3617679763	105.8783590791746
393182.87557057705	106.9086114674704
400500.07578736113	107.92098476866174
407953.4503452449	108.87453064104807
415545.53347188793	109.8458221643711
423278.90655735444	110.83518958821405
431156.19903182285	111.8429693081617
439180.0892596086	112.86950398017721
447353.3054498463	113.91514263710994
455678.6265841069	114.98024080736997
464158.8833612772	116.0651606358111
472796.9591600391	117.17027100686538
481595.7910192351	118.29594766996598
490558.37063650455	119.44257336730749
499687.7453854889	120.61053796398187
508987.01935196744	121.69259925734877
518459.3543892913	122.77371940591121
528107.971193433	123.87495938439729
537936.1503980698	124.99669362626557
547947.2336900292	126.13930353324491
558144.6249454955	127.30317760501482
568531.7913873753	128.48871157130074
579112.2647641759	129.6963085264248
589889.6425508494	130.92637906636355
600867.5891719693	132.17934142835455
612049.837247669	133.45562163310095
623440.1888627864	134.75565362962467
635042.5168595962	136.02963383635034
646860.7661546321	137.2331450938655
658898.9550799957	138.45905390066775
671161.1767496273	139.70777707896002
683651.6004510239	140.9797392080783
696374.4730628222	142.27537276885133
709334.1204987989	143.5951182906501
722534.9491787221	144.9394245011723
735981.4475265756	146.30874847901376
749678.1874966876	147.7035558090818
763629.8261282241	149.12432074089705
777841.1071286482	150.57152634984502
792316.8624866261	152.04566470142635
807062.014114949	153.40765045211265
822081.5755240541	154.7725241746974
837380.653526649	156.1627984295007
852964.4499741016	157.57894592474935
868838.2635251193	159.02144816585073
885007.4914473438	160.4907956191092
901477.6314524917	161.98748787849107
918254.2835656282	163.51203383549117
935343.1520292377	165.06495185216164
952750.04724273	166.6467699373608
970480.8877380306	168.25802592628114
988541.7021919574	169.89926766332013
1006938.6314760271	171.50326404903336
1025677.9307444209	173.02308231777178
1044765.9715608052	174.57118466309777
1064209.2440647245	176.14809745648898
1084014.359178331	177.75435686528633
1104188.0508541602	179.390509034996
1124737.1783647507	181.05711027498506
1145668.7286348727	182.7547272476327
1166989.8186171474	184.48393716100077
1188707.6977119034	186.24532796509203
1210829.7502320395	188.03949855175856
1233363.4979137748	189.86705895833182
1256316.6024741214	191.72863057504193
1279696.8682159416	193.44398212259318
1303512.244681509	195.16811812493904
1327770.8293554292	196.92434059166058
1352480.870417874	198.71324665731956
1377650.769549055	200.5354445692537
1403289.084785873	202.39155389438662
1429404.533431761	204.28220572988832
1456005.9950206485	206.20804291775443
1483102.5143361029	208.16972026337945
1510703.3044866556	210.16790475819786
1538817.7500383463	212.20327580646767
1567455.410205595	214.27652545627635
1596626.022101425	216.297306928352
1626339.5040481905	218.21785257810433
1656605.9589499151	220.17413990919113
1687435.6777273756	222.16683408038318
1718839.1428171457	224.19661262917
1750827.0317357269	226.26416570212885
1783410.2207100063	228.37019628958154
1816599.7883753285	230.51542046462092
1850407.019542302	232.70056762658018
1884843.4090337954	234.9263807490394
1919920.6655932867	237.19361663244325
1955650.715865947	239.50304616142043
1992045.7084538713	241.85545456689565
2029118.018046678	244.01747940969906
2066880.2496290822	246.19707831584387
2105345.242766708	248.41723992850405
2144526.0759716653	250.6787191265491
2184436.0711494284	252.98228483727448
2225088.7981283693	255.3287202978417
2266498.079273693	257.71882332159004
2308677.994187172	260.15340656930096
2351642.884494346	262.6332978255101
2395407.3587208795	265.15934027996616
2439986.29725955	267.7323928143206
2485394.8574297987	270.35333029415966
2531648.478631358	272.9012243693937
2578762.8875937983	275.33019369749906
2626754.1037238385	277.80436655810473
2675638.4445520453	280.3245841966413
2725432.531281028	282.89170351426105
2776153.294436804	285.50659735919277
2827817.979625338	288.1701548235178
2880444.1533962977	290.8832815454748
2934049.7092157872	293.6469000173818
2988652.8735503824	296.4619498992973
3044272.212064306	299.32938833851296
3100926.6359319235	302.2501902949937
3158635.408267819	305.225348872877
3217418.1506763715	307.95293675741243
3277294.849923382	310.7109027850164
3338285.8647317644	313.5201950296788
3400411.9327037027	316.3817686810316
3463694.1773717343	319.29659670495056
3528154.115380883	322.26567017436975
3593813.6638046256	325.28999860626044
3660695.147596906	328.37061030487644
3728821.30718283	331.50855271138755
3798215.306190736	334.70489276002417
3868900.7393279755	337.960717240842
3940901.6404034477	341.2771331692457
4014242.490499326	344.4928479435499
4088948.226294856	347.5680551122215
4165044.248545185	350.7004924095677
4242556.430717777	353.89122489802
4321511.127789762	357.14133746100464
4401935.185208879	360.45193517181286
4483855.948021182	363.8241436693364
4567301.270168747	367.2591095408011
4652299.523960189	370.75800071161336
4738879.609717651	374.3220068424717
4827070.965603188	377.9523397338625
4916903.577628021	381.65023373808424
5008407.989848212	385.4169461789441
5101615.314749834	388.86211994073295
5196557.243827658	392.3560092117287
5293266.058360566	395.91492035656427
5391774.640387494	399.5400634433745
5492116.483887789	403.2326710598707
5594325.706169377	406.9939987324288
5698437.059469136	410.8253253529856
5804485.942768984	414.7279536138745
5912508.413831869	418.7032104507532
6022541.201461928	422.7524474937807
6134621.717992506	426.8770415271805
6248788.072006888	431.07839495736613
6365079.081295578	435.14205190701574
6483534.286054714	439.04051497596834
6604193.962330305	443.0115291059818
6727099.135712337	447.0564444846462
6852291.595284058	451.17663642677405
6979813.907830667	455.3735058420207
7109709.432312424	459.64847971120645
7242022.334607315	464.0030115715111
7376797.602527731	468.43858201068514
7514081.061116962	472.95669917047104
7653919.388230155	477.55889925938567
7796360.130405221	482.2467470750459
7941451.71902934	487.0218365362219
8089243.486805938	491.3798256176053
8239785.684528511	495.8124537479303
8393129.498166373	500.32757384199937
8549327.066268368	504.92672108929264
8708431.497690724	509.61145924943145
8870496.889654404	514.383381183866
9035578.34613892	519.2441093974717
9203731.99661823	524.1952965902148
9375015.015145289	529.2386262190886
9549485.639791965	534.3758130705082
9727203.192450536	539.6086038433559
9908228.099003788	544.9387777428769
10092621.909870485	550.0819947031724
10280447.320933098	555.0321250257724
10471768.194855202	560.0743781159704
10666649.582795387	565.2104683941463
10865157.746525373	570.4421421863358
11067360.180959744	575.7711783179989
11273325.63710487	581.1993887188389
11483124.145435112	586.7286190388811
11696827.039703846	592.3607492760108
11914506.981197748	598.0976944151943
12136237.983442418	603.9414050795939
12362095.43736769	609.8938681937997
12592156.13694151	615.9491169321321
12826498.3052806	621.4799356943856
13065201.621247198	627.1136839349065
13308347.24654076	632.8522771887999
13556017.853293689	638.6976666396037
13808297.652180923	644.6518397827148
14065272.421052365	650.7168211011574
14327029.534098294	656.894672753929
14593657.991557576	663.1874952771577
14865248.449978571	669.5974282983044
15141893.25304352	676.126651263663
15423686.462966274	682.7773841793934
15710723.89247449	689.5518883663474
16003103.137387017	696.0741235067906
16300923.60979741	702.3722573779366
16604286.571875297	708.78760059209
16913295.17029647	715.3223344350677
17228054.471313924	721.9786807867871
17548671.49648152	728.75890287673
17875255.259042356	735.6653060534611
18207916.800994623	742.7002385684771
18546769.230846975	749.8660923746332
18891927.762076642	757.1653039394348
19243509.75230332	764.6003550734627
19601634.743191857	772.1737737742123
19966424.501097932	779.8579490572458
20338003.0584698	786.9031699884569
20716496.75602067	794.0795036799842
21102034.285685964	801.3893901626076
21494746.734379806	808.8353148764928
21894767.628566206	816.4198095162718
