# Frequency (Hz)	Imaginary Part (Ohm)
1000.0	7.15553927
1018.6101701559753	7.209109001817944
1037.566678745186	7.263675675460231
1056.875971184804	7.319257844183845
1076.544612842316	7.375874406525046
1096.5792912678098	7.4335446127250595
1116.9868184678226	7.492288071275387
1137.7741332214914	7.552124755584889
1158.9483034398106	7.613075010770957
1180.5165285688056	7.675159560577091
1202.4861420374123	7.738399514419171
1224.8646137509306	7.802816374562908
1247.6595526308697	7.868432043434837
1270.8787092020582	7.922547757609243
1294.529978227916	7.965457971794159
1318.6214013947485	8.009166752366484
1343.1611700460153	8.05368896078257
1368.1576279674719	8.099039735073001
1393.6192742241421	8.14523449498968
1419.5547660501015	8.192288947248725
1445.9729217920196	8.240219090870905
1472.8827239075017	8.289041222621494
1500.2933220192183	8.338771942551341
1528.2140360258693	8.38942815964106
1556.654359271062	8.441027097550279
1585.6239617711371	8.49310339780444
1615.1326935030913	8.527141015885851
1645.1905877536624	8.56181207983146
1675.8078645307671	8.597128378176587
1706.994934038408	8.633101918843195
1738.7624002162504	8.66974493322272
1771.1210643450886	8.70706988033488
1804.0819287193829	8.745089451063855
1837.6562003881704	8.783816572473356
1871.8552949655793	8.82326441220194
1906.690840512252	8.863446382940156
1942.1746814890264	8.904376146991016
1978.3188827841643	8.946067620915302
2015.1357338155585	8.98315349459681
2052.6377527092523	9.016256080189956
2090.83769055575	9.049974710533593
2129.748535745521	9.084320850325353
2169.3835183851843	9.119306177622837
2209.756114795903	9.154942587814292
2250.880052095462	9.191242197663156
2292.7693128656488	9.228217349427903
2335.438139906479	9.265880615058537
2378.9010410788933	9.304244800471183
2423.1727942376006	9.343322949902259
2468.2684522556924	9.383128350343624
2514.2033481427966	9.423647608878486
2560.9931002584594	9.46440457633568
2608.6536176225477	9.505920037892292
2657.201105324507	9.54820810925258
2706.652070033241	9.591283168816446
2757.0233256095826	9.635159862568274
2808.3319988231724	9.67985310905671
2860.595535175742	9.725378104467115
2913.8317048327885	9.77175032778846
2968.058608665602	9.818985546076325
3023.2946844057765	9.86709981981388
3079.5587129142264	9.916109508372626
3136.8698245668766	9.96603127557474
3195.2475057592137	10.01997394968478
3254.711605531848	10.077347550889797
3315.282342319423	10.135788884575701
3376.9803108250912	10.195317821425647
3439.8264890229248	10.25595460191957
3503.8422452906757	10.317719843216198
3569.0493456752297	10.380634546163078
3635.4699612933177	10.444720102437111
3703.126675869927	10.50999830181795
3772.0424934169973	10.576491339596737
3842.240846055061	10.644221824122779
3913.745601980384	10.713212784490594
3986.581073580439	10.783973663627227
4060.7720257003652	10.86210082697361
4136.343684063274	10.941681950123668
4213.321743847289	11.022744091516756
4291.732378422157	11.105314813154374
4371.602248248502	11.18942218997157
4452.958509942656	11.27509481938271
4535.828825510186	11.362361831004897
4620.241371751313	11.45125289656238
4706.224849841282	11.54179823997523
4793.808495089107	11.634028647635825
4883.02208687788	11.727975478876543
4973.895958790063	11.823670676632261
5066.461008921268	11.922688758132129
5160.7487103859075	12.02464227500547
5256.791122018419	12.128493164175822
5354.620899273607	12.23427673606449
5454.271305329837	12.342028958225715
5555.7762223988775	12.451786467576037
5659.170163246243	12.563586582851265
5764.488282925873	12.677467317295223
5871.766390733255	12.793467391584675
5981.040962380944	12.91162624699476
6092.349152400711	13.031984058809458
6205.7288067765	13.154581749981627
6321.218475812449	13.278972600155623
6438.857427240419	13.401241979653662
6558.685659571435	13.525786813109027
6680.743915695614	13.652649447107036
6805.073696735207	13.781873016310183
6931.7172761554075	13.91350145812437
7060.717714137772	14.047579527638078
7192.118872221193	14.18415281283963
7325.9654282152305	14.323267750117534
7462.302891391108	14.464971640049418
7601.17761795533	14.609312663484705
7742.63682681127	14.756339897926605
7886.728615614156	14.906103334219038
8033.501977124734	15.050177785354904
8183.006815867389	15.191521399665792
8335.293965098195	15.335495442689473
8490.415204088747	15.482148867151862
8648.423275731726	15.631531536797457
8809.37190447399	15.783694243343504
8973.31581458352	15.93868872374977
9140.310748756232	16.096567677809638
9310.413487069076	16.257384786068602
9483.681866285928	16.421194728076266
9660.174799522645	16.58805320097792
9839.952296278227	16.758016938452243
10023.075482838643	16.92850014469525
10209.606623060476	17.083479379089763
10399.609139541202	17.24134280340698
10593.147635183701	17.40214409291215
10790.287915161836	17.56593792177631
10991.097009294961	17.73277998166613
11195.643194838794	17.90272700067969
11403.996019700331	18.075836762634577
11616.226326085018	18.252168126715105
11832.40627458378	18.431781047485007
12052.609368708414	18.614736595272646
12276.910479883603	18.801096976935614
12505.385872903913	18.990925557011643
12738.113231864785	19.16833467936713
12975.171686575868	19.339890579613805
13216.641839466038	19.51463916435533
13462.60579298911	19.692639849993434
13713.147177539457	19.87395315867912
13968.351179887397	20.058640738890993
14228.30457214352	20.2467653863963
14493.095741262152	20.438391065602218
14762.81471909391	20.63358293130443
15037.553212997384	20.832407350840406
15317.404637020798	21.034931926655105
15602.46414366368	21.241225519286484
15892.828656229764	21.447521803121948
16188.596901781992	21.635715749541408
16489.86944471065	21.82741201732604
16796.74872092653	22.022675785272405
17109.339072690134	22.22157344516555
17427.746784089173	22.42417262435293
17752.08011717636	22.630542208738476
18082.44934877952	22.840752366204427
18418.96680799711	23.054874570469337
18761.746914391195	23.272981625389786
19110.90621689136	23.495147689714525
19466.563433422634	23.721448302299258
19828.839491270715	23.95196040779057
20197.857568198782	24.16953458314645
20573.743134329117	24.382300181891488
20956.623994804308	24.599025384632505
21346.630333242454	24.819783880273643
21743.8947560008	25.04465072908202
22148.552337263594	25.27370238820916
22560.74066496859	25.50701673768716
22980.599887588487	25.744673106908778
23408.272761782944	25.98675230160029
23843.904700937204	26.233336631296204
24287.643824604504	26.484509937325555
24739.641008868115	26.74035762131875
25200.049937640895	26.99606952056457
25669.02715491952	27.233239638502113
26146.73211801092	27.47482353269035
26633.327251749808	27.72090334425638
27128.978003724646	27.9715627429876
27633.85290053167	28.226886955780408
28148.123605075813	28.486962795618254
28671.9649749377	28.751878691088915
29205.555121827452	29.021724716451306
29749.075472144435	29.296592622261635
30302.71082866393	29.57657586656945
30866.649433372746	29.861769646694718
31441.083031472648	30.15227093159551
32026.206936576502	30.42625385251331
32622.220097116733	30.695277644618667
33229.325163989684	30.96930801527105
33847.72855945983	31.24843813774924
34477.64054734464	31.532762919302375
35119.275304507275	31.822379033419775
35772.850993678774	32.117384952700846
36438.58983763541	32.41788098233669
37116.71819475767	32.72396929421532
37807.46663599349	33.03575396166073
38511.07002325569	33.353340994819334
39227.76758927724	33.676838376704374
39957.803018952654	33.99915125100568
40701.42453219439	34.298375838079885
41458.88496832911	34.60316904563437
42230.44187206672	34.91363450664382
43016.357581068	35.22987778271025
43816.89931514195	35.55200639995491
44632.33926710398	35.88012988557862
45462.95469532399	36.21435980510195
46309.02801799737	36.55480980029883
47170.84690917022	36.90159562783596
48048.70439655134	37.2548351986312
48942.898961145314	37.61464861794476
49853.73463873893	37.98115822621615
50781.5211232767	38.32552876496359
51726.57387216025	38.66451436891772
52689.21421350677	39.009808552641815
53669.76945540476	39.36152871987888
54668.57299720181	39.719794459275526
55685.96444286409	40.084727585043396
56722.28971644549	40.45645217837739
57777.90117970507	40.83509462964446
58853.15775191451	41.22078368135788
59948.42503189409	41.61365047195098
61064.07542232036	42.01382858036566
62200.48825634718	42.42145407147067
63358.04992658254	42.826461999461145
64537.15401646702	43.20353586471904
65738.20143409586	43.58762713877076
66961.60054853215	43.978866416788
68207.76732865692	44.377386724340894
69477.1254846024	44.783323562627906
70770.10661181889	45.196814954548024
72087.15033782135	45.618001491629805
73428.70447166757	46.04702638183408
74795.2251562183	46.484035498246264
76187.17702322999	46.929177428674535
77605.0333513357	47.38260352617163
79049.2762269642	47.84446796049632
80520.3967082547	48.277227352993144
82018.89499202212	48.704497481133316
83545.28058382872	49.1397191790607
85100.07247122246	49.583040426842075
86683.79930019774	50.03461195847843
88296.99955494083	50.494587313156124
89940.22174092053	50.96312288745199
91614.0245713852	51.44037798850956
93318.97715733238	51.92651488820563
95055.6592010119	52.421698878324136
96824.66119303113	52.92609832675727
98626.5846131283	53.43988473475238
100462.04213468131	53.948957389661196
102331.6578330245	54.42428078584922
104236.06739764012	54.90845003131941
106175.9183482999	55.4016297488321
108151.87025522892	55.903987624805225
110164.59496336569	56.41569446632935
112214.77682079803	56.93692425924422
114303.11291144787	57.4678542272956
116430.31329208757	58.00866489239331
118597.10123376705	58.55954013599073
120804.21346773289	59.120667261606144
123052.40043592616	59.6922370585084
125342.42654613995	60.27444386658702
127675.07043192645	60.81840187763708
130051.12521734099	61.35705317147236
132471.39878661174	61.905728857540595
134936.71405883064	62.46461549148701
137447.90926775365	63.03390310078906
140005.8382468096	63.61378524936792
142611.37071941298	64.2044591034023
145265.39259467812	64.8061254983669
147968.80626863963	65.4189890073189
150722.53093107554	66.04325801045489
153527.5028780421	66.67914476596235
156384.6758302248	67.3268654821898
159295.0212572123	67.96686741916508
162259.5287078087	68.56616801717492
165279.2061464897	69.17662170128835
168355.08029612005	69.79843603233535
171488.19698705408	70.43182243388868
174679.62151272458	71.07699626414934
177930.43899185772	71.73417688917132
181241.75473742394	72.40358775744826
184614.69463245457	73.08545647588794
188050.40551285836	73.78001488720197
191550.05555735278	74.48749914873375
195114.83468466165	75.2081498127553
198745.9549580986	75.94221190825739
202444.65099768018	76.62610242411503
206212.18039991445	77.30533620641668
210049.82416539153	77.99721064498259
213958.88713434216	78.70196098457677
217940.6984302958	79.41982684790835
221996.61191199525	80.15105231710555
226128.00663372796	80.89588601670705
230336.28731421314	81.65458119819596
234622.88481422624	82.42739582610889
238989.25662310526	83.2145926657464
243436.8873543108	84.01643937251562
247967.289250216	84.83320858293702
252582.00269627848	85.63801638423871
257282.5967447932	86.39383731155755
262070.66964838552	87.16372419494132
266947.8494034318	87.94793880422556
271915.7943036019	88.74674778082755
276976.1935036891	89.56042272840614
282130.76759394706	90.3892403052108
287381.2691851069	91.23348231814818
292729.4835042813	92.09343581859895
298177.22900196735	92.96939320001952
303726.35797033116	93.86165229735761
309378.7571730137	94.7705164883204
315136.34848664823	95.69629479652576
321001.08955431683	96.55637198584081
326974.9744511768	97.4131405776113
333060.03436245886	98.28585377865883
339258.33827409917	99.17480832087523
345571.9936762143	100.0803064583833
352003.14727966755	101.00265607030613
358553.9857459817	101.94217076545033
365226.7364308176	102.8991699889351
372023.6681413066	103.87397913080807
378947.09190746717	104.866929636681
385999.3617679763	105.87835912042443
393182.87557057705	106.90861147896138
400500.07578736113	107.92098476651432
407953.4503452449	108.87453065996058
415545.53347188793	109.8458222047355
423278.90655735444	110.83518965042953
431156.19903182285	111.84296939263493
439180.0892596086	112.8695040873224
447353.3054498463	113.91514276734902
455678.6265841069	114.98024096113272
464158.8833612772	116.06516081353533
472796.9591600391	117.17027120899698
481595.7910192351	118.29594789695919
490558.37063650455	119.44257361962498
499687.7453854889	120.61053824209495
508987.01935196744	121.69259950389693
518459.3543892913	122.77371960898036
528107.971193433	123.8749595431783
537936.1503980698	124.99669373993424
547947.2336900292	126.13930360096171
558144.6249454955	127.30317762592453
568531.7913873753	128.4887115445323
579112.2647641759	129.69630845109089
589889.6425508494	130.9263789415604
600867.5891719693	132.17934125316148
612049.837247669	133.45562140658024
623440.1888627864	134.75565335082106
635042.5168595962	136.02963353602306
646860.7661546321	137.23314483109124
658898.9550799957	138.4590536761454
671161.1767496273	139.70777689340147
683651.6004510239	140.97973906220867
696374.4730628222	142.2753726634092
709334.1204987989	143.59511822638785
722534.9491787221	144.9394244788563
735981.4475265756	146.3087484994246
749678.1874966876	147.70355587301466
763629.8261282241	149.1243208491619
777841.1071286482	150.57152650326688
792316.8624866261	152.0456649008456
807062.014114949	153.4076506195832
822081.5755240541	154.77252429694582
837380.653526649	156.1627985056854
852964.4499741016	157.57894595401308
868838.2635251193	159.02144814732026
885007.4914473438	160.4907955518951
901477.6314524917	161.9874877616873
918254.2835656282	163.51203366817487
935343.1520292377	165.06495163339275
952750.04724273	166.64676966618183
970480.8877380306	168.25802560171667
988541.7021919574	169.89926728437666
1006938.6314760271	171.50326363672204
1025677.9307444209	173.02308190851699
1044765.9715608052	174.57118425695634
1064209.2440647245	176.14809705351882
1084014.359178331	177.75435646554652
1104188.0508541602	179.39050863854666
1124737.1783647507	181.05710988188738
1145668.7286348727	182.75472685794907
1166989.8186171474	184.4839367747947
1188707.6977119034	186.24532758242827
1210829.7502320395	188.03949817270305
1233363.4979137748	189.8670585829517
1256316.6024741214	191.7286302034056
1279696.8682159416	193.44398180667315
1303512.244681509	195.16811787241227
1327770.8293554292	196.92434040370685
1352480.870417874	198.71324653514057
1377650.769549055	200.53544451407353
1403289.084785873	202.3915539074521
1429404.533431761	204.28220581246958
1456005.9950206485	206.20804307114514
1483102.5143361029	208.16972048889738
1510703.3044866556	210.16790505718535
1538817.7500383463	212.20327618029194
1567455.410205595	214.27652590633014
1596626.022101425	216.2973074047974
1626339.5040481905	218.2178530038354
1656605.9589499151	220.17414028326397
1687435.6777273756	222.1668344018365
1718839.1428171457	224.19661289702447
1750827.0317357269	226.26416591538703
1783410.2207100063	228.37019644722739
1816599.7883753285	230.51542056561942
1850407.019542302	232.7005676698772
1884843.4090337954	234.92638073356105
1919920.6655932867	237.1936165570957
1955650.715865947	239.50304602508956
1992045.7084538713	241.85545436844654
2029118.018046678	244.01747922991362
2066880.2496290822	246.19707816299922
2105345.242766708	248.41723980310152
2144526.0759716653	250.67871902909943
2184436.0711494284	252.98228476829786
2225088.7981283693	255.32872025786799
2266498.079273693	257.71882331115904
2308677.994187172	260.1534065889624
2351642.884494346	262.6332978758241
2395407.3587208795	265.1593403615031
2439986.29725955	267.7323929276616
2485394.8574297987	270.3533304398965
2531648.478631358	272.90122452669954
2578762.8875937983	275.33019383732744
2626754.1037238385	277.80436668013033
2675638.4445520453	280.32458430053276
2725432.531281028	282.89170359968097
2776153.294436804	285.50659742579734
2827817.979625338	288.17015487095694
2880444.1533962977	290.88328157339174
2934049.7092157872	293.6469000254133
2988652.8735503824	296.46194988707316
3044272.212064306	299.3293883056564
3100926.6359319235	302.2501902411206
3158635.408267819	305.2253487975963
3217418.1506763715	307.9529366900441
3277294.849923382	310.71090272770726
3338285.8647317644	313.520194982616
3400411.9327037027	316.38176864440584
3463694.1773717343	319.2965966789561
3528154.115380883	322.26567015920443
3593813.6638046256	325.2899986021257
3660695.147596906	328.3706103119777
3728821.30718283	331.50855272993385
3798215.306190736	334.70489279022854
3868900.7393279755	337.9607172829213
3940901.6404034477	341.277133223421
4014242.490499326	344.4928479823002
4088948.226294856	347.5680551010334
4165044.248545185	350.70049234751184
4242556.430717777	353.8912247841498
4321511.127789762	357.14133729435576
4401935.185208879	360.45193495140313
4483855.948021182	363.8241433941654
4567301.270168747	367.25910920984956
4652299.523960189	370.75800032384325
4738879.609717651	374.3220063968256
4827070.965603188	377.95233922926343
4916903.577628021	381.65023317343497
5008407.989848212	385.4169455531271
5101615.314749834	388.8621193335256
5196557.243827658	392.3560086266591
5293266.058360566	395.91491979404435
5391774.640387494	399.5400629038238
5492116.483887789	403.2326705437169
5594325.706169377	406.9939982401072
5698437.059469136	410.82532488493973
5804485.942768984	414.72795317055613
5912508.413831869	418.70321003262256
6022541.201461928	422.7524471013066
6134621.717992506	426.87704116084024
6248788.072006888	431.0783946176462
6365079.081295578	435.14205158634184
6483534.286054714	439.0405146656933
6604193.962330305	443.0115288062992
6727099.135712337	447.05644419575316
6852291.595284058	451.17663614887135
6979813.907830667	455.3735055753128
7109709.432312424	459.6484794559018
7242022.334607315	464.00301132782187
7376797.602527731	468.4385817788275
7514081.061116962	472.95669895066516
7653919.388230155	477.55889905185586
7796360.130405221	482.24674688002057
7941451.71902934	487.02183635393374
8089243.486805938	491.37982549070847
8239785.684528511	495.8124536779973
8393129.498166373	500.3275738300904
8549327.066268368	504.9267211364876
8708431.497690724	509.61145935683015
8870496.889654404	514.383381352589
9035578.34613892	519.24410962866
9203731.99661823	524.1952968850312
9375015.015145289	529.238626578717
9549485.639791965	534.3758134961549
9727203.192450536	539.6086043362495
9908228.099003788	544.9387783042689
10092621.909870485	550.081995292082
10280447.320933098	555.0321256000651
10471768.194855202	560.074378675374
10666649.582795387	565.2104689383839
10865157.746525373	570.442142715125
11067360.180959744	575.7711788310522
11273325.63710487	581.1993892158637
11483124.145435112	586.728619519579
11696827.039703846	592.3607497400778
11914506.981197748	598.097694862321
12136237.983442418	603.9414055094651
12362095.43736769	609.8938686060941
12592156.13694151	615.9491173264126
12826498.3052806	621.4799360615375
13065201.621247198	627.1136842744249
13308347.24654076	632.8522775001708
13556017.853293689	638.6976669223029
13808297.652180923	644.651840036209
14065272.421052365	650.716821324903
14327029.534098294	656.8946729473723
14593657.991557576	663.1874954397349
14865248.449978571	669.597428429441
15141893.25304352	676.1266513627739
15423686.462966274	682.7773842458826
15710723.89247449	689.5518883996076
16003103.137387017	696.0741235198528
16300923.60979741	702.3722573828884
16604286.571875297	708.7876005887803
16913295.17029647	715.3223344233428
17228054.471313924	721.9786807664905
17548671.49648152	728.7589028477018
17875255.259042356	735.6653060155393
18207916.800994623	742.7002385214959
18546769.230846975	749.8660923184242
18891927.762076642	757.1653038738261
19243509.75230332	764.6003549982794
19601634.743191857	772.1737736892763
19966424.501097932	779.8579489625065
20338003.0584698	786.903169887122
20716496.75602067	794.079503571931
21102034.285685964	801.3893900477111
21494746.734379806	808.8353147546258
21894767.628566206	816.4198093873044
22302232.979659364	824.1454527556446
