# Frequency (Hz)	Real Part (Ohm)
1000.0	3.87616897013714
1018.6101701559753	3.9665596144686295
1037.566678745186	4.058632444071641
1056.875971184804	4.152418764700302
1076.544612842316	4.247950464714171
1096.5792912678098	4.345260025920581
1116.9868184678226	4.444380534618846
1137.7741332214914	4.545345692849939
1158.9483034398106	4.648189829855531
1180.5165285688056	4.752947913750348
1202.4861420374123	4.859655563411656
1224.8646137509306	4.9683490605901035
1247.6595526308697	5.079065362245898
1270.8787092020582	5.1828127546624145
1294.529978227916	5.279822455464332
1318.6214013947485	5.378637523304951
1343.1611700460153	5.479291556372057
1368.1576279674719	5.5818187781214315
1393.6192742241421	5.686254048913177
1419.5547660501015	5.792632877864647
1445.9729217920196	5.900991434923893
1472.8827239075017	6.011366563167866
1500.2933220192183	6.123795791329453
1528.2140360258693	6.2383173465576265
1556.654359271062	6.3549701674151295
1585.6239617711371	6.473123061353636
1615.1326935030913	6.56706883162287
1645.1905877536624	6.662762948662242
1675.8078645307671	6.760237949502644
1706.994934038408	6.859526976694645
1738.7624002162504	6.9606637895773025
1771.1210643450886	7.063682775756747
1804.0819287193829	7.1686189627982815
1837.6562003881704	7.275508030136177
1871.8552949655793	7.384386321205052
1906.690840512252	7.495290855797004
1942.1746814890264	7.608259342648787
1978.3188827841643	7.7233301922631385
2015.1357338155585	7.823543703487655
2052.6377527092523	7.910859854593082
2090.83769055575	7.999800974127945
2129.748535745521	8.090397303031219
2169.3835183851843	8.182679645030886
2209.756114795903	8.276679377117564
2250.880052095462	8.372428460212983
2292.7693128656488	8.469959450037091
2335.438139906479	8.569305508177308
2378.9010410788933	8.670500413363836
2423.1727942376006	8.77357857295481
2468.2684522556924	8.87857503463513
2514.2033481427966	8.984023588551873
2560.9931002584594	9.062633616178669
2608.6536176225477	9.142706589795562
2657.201105324507	9.224269735076364
2706.652070033241	9.307350784369294
2757.0233256095826	9.391977986126303
2808.3319988231724	9.478180114507838
2860.595535175742	9.565986479166357
2913.8317048327885	9.655426935211953
2968.058608665602	9.746531893363379
3023.2946844057765	9.839332330288059
3079.5587129142264	9.93385979913446
3136.8698245668766	10.0301464402605
3195.2475057592137	10.114682223365811
3254.711605531848	10.190160425001556
3315.282342319423	10.267043288812811
3376.9803108250912	10.345356955801673
3439.8264890229248	10.425128053458735
3503.8422452906757	10.506383704816727
3569.0493456752297	10.589151537672622
3635.4699612933177	10.673459693981407
3703.126675869927	10.759336839424638
3772.0424934169973	10.846812173157074
3842.240846055061	10.935915437734725
3913.745601980384	11.026676929227614
3986.581073580439	11.117920518778522
4060.7720257003652	11.19583789970332
4136.343684063274	11.275205336345234
4213.321743847289	11.3560498144879
4291.732378422157	11.438398822124968
4371.602248248502	11.52228035880634
4452.958509942656	11.607722945158299
4535.828825510186	11.69475563258083
4620.241371751313	11.783408013125431
4706.224849841282	11.873710229556695
4793.808495089107	11.965692985601205
4883.02208687788	12.059387556387126
4973.895958790063	12.154825799078056
5066.461008921268	12.246626889223572
5160.7487103859075	12.336300408580987
5256.791122018419	12.427642767392129
5354.620899273607	12.520685023043198
5454.271305329837	12.615458810903633
5555.7762223988775	12.711996355082466
5659.170163246243	12.810330479384913
5764.488282925873	12.910494618472763
5871.766390733255	13.01252282923257
5981.040962380944	13.116449802355328
6092.349152400711	13.22231087413169
6205.7288067765	13.330142038466708
6321.218475812449	13.439440222106898
6438.857427240419	13.54586978480081
6558.685659571435	13.654280019766086
6680.743915695614	13.764707787650703
6805.073696735207	13.877190635085602
6931.7172761554075	13.9917668074509
7060.717714137772	14.108475261879727
7192.118872221193	14.227355680504125
7325.9654282152305	14.348448483947326
7462.302891391108	14.471794845067272
7601.17761795533	14.597436702955788
7742.63682681127	14.725416777198316
7886.728615614156	14.855778582399076
8033.501977124734	14.984777656930174
8183.006815867389	15.113758245264819
8335.293965098195	15.245139184295198
8490.415204088747	15.378965144956174
8648.423275731726	15.515281629516345
8809.37190447399	15.65413498704924
8973.31581458352	15.795572429192552
9140.310748756232	15.93964204620058
9310.413487069076	16.08639282329543
9483.681866285928	16.235874657322544
9660.174799522645	16.38813837371612
9839.952296278227	16.543235743780365
10023.075482838643	16.699815556507957
10209.606623060476	16.849390595019162
10399.609139541202	17.001749250448132
10593.147635183701	17.15694332637937
10790.287915161836	17.31502559047089
10991.097009294961	17.47604979239579
11195.643194838794	17.64007068211777
11403.996019700331	17.80714402850658
11616.226326085018	17.977326638300223
11832.40627458378	18.15067637541971
12052.609368708414	18.327252180643487
12276.910479883603	18.507114091647924
12505.385872903913	18.690323263420716
12738.113231864785	18.865261236018146
12975.171686575868	19.036751346142523
13216.641839466038	19.211432916396383
13462.60579298911	19.389365340395802
13713.147177539457	19.570609117082093
13968.351179887397	19.755225871292225
14228.30457214352	19.943278374711856
14493.095741262152	20.134830567218387
14762.81471909391	20.32994757862123
15037.553212997384	20.52869575080658
15317.404637020798	20.7311426602945
15602.46414366368	20.937357141215532
15892.828656229764	21.143811137372932
16188.596901781992	21.333528596725966
16489.86944471065	21.526776730279106
16796.74872092653	21.72362124447999
17109.339072690134	21.92412906858442
17427.746784089173	22.128368377413043
17752.08011717636	22.33640861453153
18082.44934877952	22.548320515862056
18418.96680799711	22.764176133734413
18761.746914391195	22.984048861384505
19110.90621689136	23.20801345790882
19466.563433422634	23.436146073683396
19828.839491270715	23.668524276255635
20197.857568198782	23.887138254224396
20573.743134329117	24.10052031179378
20956.623994804308	24.31787344576276
21346.630333242454	24.53927155853886
21743.8947560008	24.764789927865916
22148.552337263594	24.994505232419446
22560.74066496859	25.228495577878146
22980.599887588487	25.46684052348069
23408.272761782944	25.70962110907674
23843.904700937204	25.95691988268127
24287.643824604504	26.20882092854195
24739.641008868115	26.465409895728563
25200.049937640895	26.721664745668374
25669.02715491952	26.958378615599464
26146.73211801092	27.199497770928218
26633.327251749808	27.44510419476551
27128.978003724646	27.69528139594182
27633.85290053167	27.950114437401158
28148.123605075813	28.209689965123445
28671.9649749377	28.47409623758495
29205.555121827452	28.74342315576727
29749.075472144435	29.017762293724573
30302.71082866393	29.297206929719643
30866.649433372746	29.58185207793983
31441.083031472648	29.87179452080242
32026.206936576502	30.1450658212925
32622.220097116733	30.413299433132316
33229.325163989684	30.68652491812996
33847.72855945983	30.96483517589442
34477.64054734464	31.248324834911998
35119.275304507275	31.53709028472135
35772.850993678774	31.831229708686863
36438.58983763541	32.13084311738188
37116.71819475767	32.436032382593794
37807.46663599349	32.74690127196104
38511.07002325569	33.063555484255616
39227.76758927724	33.38610268532163
39957.803018952654	33.707479819386165
40701.42453219439	34.00588093766614
41458.88496832911	34.309835351532016
42230.44187206672	34.619446408759586
43016.357581068	34.934819380444374
43816.89931514195	35.25606149679477
44632.33926710398	35.58328198359171
45462.95469532399	35.916592099326465
46309.02801799737	36.25610517302976
47170.84690917022	36.60193664280487
48048.70439655134	36.95420409507776
48942.898961145314	37.313027304577865
49853.73463873893	37.678528275062675
50781.5211232767	38.02191257489085
51726.57387216025	38.359910351991566
52689.21421350677	38.704198325236426
53669.76945540476	39.05489355624603
54668.57299720181	39.412115285177606
55685.96444286409	39.77598497126801
56722.28971644549	40.146626334131206
57777.90117970507	40.524165395824085
58853.15775191451	40.908730523695596
59948.42503189409	41.300452474032845
61064.07542232036	41.699464436519705
62200.48825634718	42.10590207952276
63358.04992658254	42.50969911796485
64537.15401646702	42.8855363070446
65738.20143409586	43.268367890164065
66961.60054853215	43.658324034186464
68207.76732865692	44.05553732840253
69477.1254846024	44.460142829612124
70770.10661181889	44.87227810804528
72087.15033782135	45.29208329413736
73428.70447166757	45.71970112617497
74795.2251562183	46.15527699882857
76187.17702322999	46.59895901258805
77605.0333513357	47.05089802411874
79049.2762269642	47.51124769755414
80520.3967082547	47.94246705611983
82018.89499202212	48.36816953786899
83545.28058382872	48.801794415239264
85100.07247122246	49.24348912536128
86683.79930019774	49.693403849195654
88296.99955494083	50.15169156259626
89940.22174092053	50.6185080883237
91614.0245713852	51.09401214902649
93318.97715733238	51.57836542120884
95055.6592010119	52.07173259020208
96824.66119303113	52.57428140615966
98626.5846131283	53.086182741093964
100462.04213468131	53.593336821410716
102331.6578330245	54.06671072194117
104236.06739764012	54.548894191307895
106175.9183482999	55.040051177085935
108151.87025522892	55.540348677942646
110164.59496336569	56.04995680041887
112214.77682079803	56.569048816767236
114303.11291144787	57.09780122386645
116430.31329208757	57.63639380323217
118597.10123376705	58.185009682144674
120804.21346773289	58.74383539591397
123052.40043592616	59.31306095130404
125342.42654613995	59.89287989113704
127675.07043192645	60.434409455231076
130051.12521734099	60.97058832169679
132471.39878661174	61.516745568101406
134936.71405883064	62.07306689379352
137447.90926775365	62.63974145401818
140005.8382468096	63.216961924231676
142611.37071941298	63.804924565613426
145265.39259467812	64.40382929179658
147968.80626863963	65.01387973684122
150722.53093107554	65.63528332447187
153527.5028780421	66.26825133860385
156384.6758302248	66.91299899518219
159295.0212572123	67.549973781783
162259.5287078087	68.14619418882171
165279.2061464897	68.75351035908594
168355.08029612005	69.37212878661714
171488.19698705408	70.00225980834645
174679.62151272458	70.64411767561063
177930.43899185772	71.29792062700056
181241.75473742394	71.96389096256439
184614.69463245457	72.64225511939176
188050.40551285836	73.33324374860555
191550.05555735278	74.03709179378478
195114.83468466165	74.75403857084875
198745.9549580986	75.48432784942672
202444.65099768018	76.16437853352402
206212.18039991445	76.83970189506086
210049.82416539153	77.52759313926612
213958.88713434216	78.22828615657485
217940.6984302958	78.9420191901629
221996.61191199525	79.66903491695179
226128.00663372796	80.40958053012245
230336.28731421314	81.1639078231624
234622.88481422624	81.93227327547912
238989.25662310526	82.71493813960551
243436.8873543108	83.51216853002823
247967.289250216	84.32423551367039
252582.00269627848	85.1242546585543
257282.5967447932	85.8752003541619
262070.66964838552	86.64012127694275
266947.8494034318	87.41927750825225
271915.7943036019	88.21293396960466
276976.1935036891	89.02136051274816
282130.76759394706	89.84483201141815
287381.2691851069	90.68362845479709
292729.4835042813	91.53803504271336
298177.22900196735	92.4083422826133
303726.35797033116	93.29484608833567
309378.7571730137	94.19784788072647
315136.34848664823	95.11765469012488
321001.08955431683	95.9716518861023
326974.9744511768	96.82222794877929
333060.03436245886	97.6886333767132
339258.33827409917	98.571162757085
345571.9936762143	99.47011615939331
352003.14727966755	100.38579923748065
358553.9857459817	101.31852333346035
365226.7364308176	102.26860558357468
372023.6681413066	103.23636902602586
378947.09190746717	104.22214271081187
385999.3617679763	105.22626181160679
393182.87557057705	106.24906773972462
400500.07578736113	107.25385692925398
407953.4503452449	108.19967949446944
415545.53347188793	109.163103978561
423278.90655735444	110.14445795623374
431156.19903182285	111.14407509841442
439180.0892596086	112.16229528570179
447353.3054498463	113.19946472393083
455678.6265841069	114.25593606188602
464158.8833612772	115.33206851120522
472796.9591600391	116.42822796851688
481595.7910192351	117.54478713984705
490558.37063650455	118.6821256673449
499687.7453854889	119.84063025836456
508987.01935196744	120.91305763697899
518459.3543892913	121.98436500169203
528107.971193433	123.07560957875157
537936.1503980698	124.18716240307198
547947.2336900292	125.3194014145905
558144.6249454955	126.47271158677033
568531.7913873753	127.64748505749732
579112.2647641759	128.84412126240915
589889.6425508494	130.06302707070915
600867.5891719693	131.3046169235059
612049.837247669	132.5693129747268
623440.1888627864	133.85754523465684
635042.5168595962	135.11950692614764
646860.7661546321	136.3107775321562
658898.9550799957	137.52421788684453
671161.1767496273	138.76024057300745
683651.6004510239	140.01926585167683
696374.4730628222	141.30172180501273
709334.1204987989	142.6080444818578
722534.9491787221	143.9386780459977
735981.4475265756	145.29407492718119
749678.1874966876	146.6746959749527
763629.8261282241	148.08101061534398
777841.1071286482	149.5134970104858
792316.8624866261	150.97264222118747
807062.014114949	152.31935749739444
822081.5755240541	153.66867683149405
837380.653526649	155.04310722799588
852964.4499741016	156.44311600804411
868838.2635251193	157.8691791897091
885007.4914473438	159.32178164983785
901477.6314524917	160.8014172889186
918254.2835656282	162.3085891990115
935343.1520292377	163.84380983480554
952750.04724273	165.40760118785883
970480.8877380306	167.0004949640807
988541.7021919574	168.62303276451848
1006938.6314760271	170.20797782142708
1025677.9307444209	171.70839137563047
1044765.9715608052	173.2367278813821
1064209.2440647245	174.79350698956114
1084014.359178331	176.37925802183872
1104188.0508541602	177.99452015065194
1124737.1783647507	179.63984258252893
1145668.7286348727	181.31578474482473
1166989.8186171474	183.02291647593228
1188707.6977119034	184.76181821903438
1210829.7502320395	186.53308121946014
1233363.4979137748	188.33730772571482
1256316.6024741214	190.175111194251
1279696.8682159416	191.86625371764532
1303512.244681509	193.5657303477004
1327770.8293554292	195.2968345270169
1352480.870417874	197.0601548496682
1377650.769549055	198.85629086356374
1403289.084785873	200.6858532743009
1429404.533431761	202.54946415281293
1456005.9950206485	204.44775714687856
1483102.5143361029	206.38137769656964
1510703.3044866556	208.35098325370782
1538817.7500383463	210.35724350540426
1567455.410205595	212.40084060176193
1596626.022101425	214.391418203668
1626339.5040481905	216.28119867486657
1656605.9589499151	218.2061482821919
1687435.6777273756	220.16692152925094
1718839.1428171457	222.1641851000751
1750827.0317357269	224.19861808579878
1783410.2207100063	226.2709122155573
1816599.7883753285	228.3817720916843
1850407.019542302	230.53191542928124
1884843.4090337954	232.72207330025057
1919920.6655932867	234.95299038186732
1955650.715865947	237.22542520997635
1992045.7084538713	239.54015043690538
2029118.018046678	241.66379191679337
2066880.2496290822	243.804293246143
2105345.242766708	245.98462966945112
2144526.0759716653	248.20554252459385
2184436.0711494284	250.4677869458728
2225088.7981283693	252.77213212076595
2266498.079273693	255.11936155146196
2308677.994187172	257.51027332125864
2351642.884494346	259.9456803659186
2395407.3587208795	262.42641075007924
2439986.29725955	264.95330794879993
2485394.8574297987	267.52723113435553
2531648.478631358	270.02723640657996
2578762.8875937983	272.4074263072811
2626754.1037238385	274.8319119470384
2675638.4445520453	277.30151767709197
2725432.531281028	279.81708319000006
2776153.294436804	282.3794638051421
2827817.979625338	284.9895307595358
2880444.1533962977	287.6481715040698
2934049.7092157872	290.3562900052429
2988652.8735503824	293.11480705252535
3044272.212064306	295.9246605714362
3100926.6359319235	298.78680594244685
3158635.408267819	301.7022163258236
3217418.1506763715	304.3689447135054
3277294.849923382	307.06491868049505
3338285.8647317644	309.8110651817468
3400411.9327037027	312.60831793665943
3463694.1773717343	315.4576280413109
3528154.115380883	318.3599642918367
3593813.6638046256	321.3163135138347
3660695.147596906	324.3276808978949
3728821.30718283	327.39509034137393
3798215.306190736	330.51958479653484
3868900.7393279755	333.7022266251573
3940901.6404034477	336.94409795975605
4014242.490499326	340.0838811111428
4088948.226294856	343.08174387529925
4165044.248545185	346.1353973756016
4242556.430717777	349.2458798871417
4321511.127789762	352.4142490074887
4401935.185208879	355.64158201628265
4483855.948021182	358.9289762415195
4567301.270168747	362.27754943265853
4652299.523960189	365.688440140664
4738879.609717651	369.16280810512893
4827070.965603188	372.7018346485974
4916903.577628021	376.30672307822556
5008407.989848212	379.97869909492323
5101615.314749834	383.3273736685124
5196557.243827658	386.7229678966721
5293266.058360566	390.18175471119883
5391774.640387494	393.7049101368765
5492116.483887789	397.2936320845127
5594325.706169377	400.9491407582365
5698437.059469136	404.672679070385
5804485.942768984	408.46551306410527
5912508.413831869	412.32893234382124
6022541.201461928	416.26425051371734
6134621.717992506	420.2728056243728
6248788.072006888	424.355960627717
6365079.081295578	428.29921942493627
6483534.286054714	432.07504367481914
6604193.962330305	435.92113665647224
6727099.135712337	439.8388060829492
6852291.595284058	443.8293840040678
6979813.907830667	447.89422725931934
7109709.432312424	452.0347179392077
7242022.334607315	456.252263855179
7376797.602527731	460.5482990182866
7514081.061116962	464.9242841267757
7653919.388230155	469.38170706273434
7796360.130405221	473.9220833979873
7941451.71902934	478.54695690941253
8089243.486805938	482.75193377354077
8239785.684528511	487.0287020939733
8393129.498166373	491.3850618005673
8549327.066268368	495.8224941025607
8708431.497690724	500.3425077747508
8870496.889654404	504.9466396704871
9035578.34613892	509.6364552442237
9203731.99661823	514.4135490837882
9375015.015145289	519.2795454525575
9549485.639791965	524.236098841728
9727203.192450536	529.2848945328581
9908228.099003788	534.4276491708829
10092621.909870485	539.3799583731862
10280447.320933098	544.1356275143007
10471768.194855202	548.9798004673368
10666649.582795387	553.9141243032938
10865157.746525373	558.9402767454427
11067360.180959744	564.0599667397704
11273325.63710487	569.2749350360377
11483124.145435112	574.5869547796568
11696827.039703846	579.9978321145765
11914506.981197748	585.509406797392
12136237.983442418	591.1235528228827
12362095.43736769	596.8421790611878
12592156.13694151	602.6592391519166
12826498.3052806	607.9474343304122
13065201.621247198	613.3340437209977
13308347.24654076	618.8208988289064
13556017.853293689	624.4098652439939
13808297.652180923	630.102843275062
14065272.421052365	635.9017685959826
14327029.534098294	641.8086129038475
14593657.991557576	647.825384589367
14865248.449978571	653.9541294197433
15141893.25304352	660.1969312342552
15423686.462966274	666.5559126527854
15710723.89247449	673.033235797533
16003103.137387017	679.2527575794678
16300923.60979741	685.2425429684209
16604286.571875297	691.3437992826604
16913295.17029647	697.5586010150729
17228054.471313924	703.8890612652114
17548671.49648152	710.3373324577711
17875255.259042356	716.9056070744358
18207916.800994623	723.5961183993476
18546769.230846975	730.4111412784465
18891927.762076642	737.3529928929423
19243509.75230332	744.4240335471821
19601634.743191857	751.6266674711766
19966424.501097932	758.9331574113525
20338003.0584698	765.593659073913
20716496.75602067	772.3781138057378
21102034.285685964	779.2888283945383
21494746.734379806	786.328152557735
21894767.628566206	793.4984797413919
