Frequency [GHz]	Zx real [Ohm/m]	Zy real [Ohm/m]
1.000000000000000166e-10	6.519927477746275144e+03	1.156410224797898809e+04
1.032794731918951654e-10	6.660196315042137940e+03	1.183683298697185273e+04
1.066664958279539403e-10	6.805065231253703132e+03	1.211850785743604683e+04
1.101645949633656381e-10	6.954685084735813689e+03	1.240942017976541865e+04
1.137774133221491146e-10	7.109211681202625186e+03	1.270987289371750558e+04
1.175087130904807540e-10	7.268805935974912245e+03	1.302017887387797055e+04
1.213623798344240958e-10	7.433634041548262758e+03	1.334066125547064439e+04
1.253424265461399975e-10	7.603867640656599178e+03	1.367165377085239743e+04
1.294529978227915867e-10	7.779684005011292356e+03	1.401350109704327588e+04
1.336983741824946476e-10	7.961266219901960540e+03	1.436655921465379470e+04
1.380829765218092491e-10	8.148803374851217995e+03	1.473119577858315824e+04
1.426113707194128486e-10	8.342490760521879565e+03	1.510779050087443284e+04
1.472882723907502473e-10	8.542530072081692197e+03	1.549673554612534463e+04
1.521185517986104510e-10	8.749129619237364750e+03	1.589843593986646192e+04
1.571072389247450498e-10	8.962504543156581349e+03	1.631330999033205990e+04
1.622595287078087593e-10	9.182877040503955868e+03	1.674178972406280445e+04
1.675807864530767868e-10	9.410476594824147469e+03	1.718432133579395304e+04
1.730765534195724819e-10	9.645540215513139628e+03	1.764136565309748403e+04
1.787525525904235329e-10	9.888312684626531336e+03	1.811339861626206766e+04
1.846146946324547531e-10	1.013904681178179271e+04	1.860091177391054225e+04
1.906690840512252406e-10	1.039800369742004841e+04	1.910441279487105567e+04
1.969220255479172543e-10	1.066545300470137408e+04	1.962442599683489243e+04
2.033800305846981002e-10	1.094167324031690077e+04	2.016149289235144170e+04
2.100498241653915480e-10	1.122695204451003156e+04	2.071617275272901315e+04
2.169383518385184289e-10	1.152158649060882817e+04	2.128904319042849966e+04
2.240527869300018610e-10	1.182588339438152980e+04	2.188070076055663230e+04
2.314005380130653023e-10	1.214015963353721963e+04	2.249176158208493507e+04
2.389892566231049743e-10	1.246474247770452166e+04	2.312286197944144078e+04
2.468268452255692806e-10	1.279996992923177822e+04	2.377465914514319593e+04
2.549214654451423314e-10	1.314619107516374243e+04	2.444783182415966075e+04
2.632815465648021228e-10	1.350376645076122441e+04	2.514308102071964458e+04
2.719157943036017723e-10	1.387306841494223590e+04	2.586113072829767407e+04
2.808331998823172083e-10	1.425448153803571222e+04	2.660272868354020829e+04
2.900430493863991314e-10	1.464840300225140709e+04	2.736864714491656196e+04
2.995549334359813486e-10	1.505524301528317483e+04	2.815968369690552936e+04
3.093787571730138678e-10	1.547542523747622909e+04	2.897666208055507377e+04
3.195247505759212065e-10	1.590938722300320296e+04	2.982043305127997519e+04
3.300034791125284578e-10	1.635758087550855635e+04	3.069187526479079679e+04
3.408258547423451742e-10	1.682047291869559922e+04	3.159189619207656142e+04
3.520031472796679687e-10	1.729854538234637948e+04	3.252143306439411390e+04
3.635469961293320139e-10	1.779229610428041633e+04	3.348145384924810060e+04
3.754694224073336536e-10	1.830223924877506943e+04	3.447295825837799930e+04
3.877828414589456106e-10	1.882890584198732176e+04	3.549697878880175267e+04
4.005000757873611052e-10	1.937284432493464556e+04	3.655458179800026846e+04
4.136343684063274911e-10	1.993462112461063225e+04	3.764686861436212348e+04
4.271993966306778827e-10	2.051482124383027985e+04	3.877497668404517754e+04
4.412092863191189219e-10	2.111404887041907568e+04	3.994008075544909661e+04
4.556786265841064474e-10	2.173292800638028348e+04	4.114339410253238020e+04
4.706224849841281415e-10	2.237210311769556210e+04	4.238616978824774560e+04
4.860564232142136024e-10	2.303223980543570360e+04	4.366970196941155154e+04
5.019965133110081441e-10	2.371402549888014255e+04	4.499532724436597346e+04
5.184593543892912175e-10	2.441817017136727009e+04	4.636442604483750620e+04
5.354620899273606527e-10	2.514540707962076704e+04	4.777842407344105595e+04
5.530224256192902378e-10	2.589649352732201442e+04	4.923879378832660586e+04
5.711586478126431938e-10	2.667221165372357063e+04	5.074705593651435629e+04
5.898896425508497150e-10	2.747336924812513826e+04	5.230478113751543424e+04
6.092349152400710261e-10	2.830080059105994224e+04	5.391359151888674387e+04
6.292146109610343618e-10	2.915536732306763224e+04	5.557516240542354353e+04
6.498495354469890483e-10	3.003795934195836526e+04	5.729122406374866841e+04
6.711611767496282870e-10	3.094949572950242873e+04	5.906356350411494350e+04
6.931717276155404727e-10	3.189092570851036726e+04	6.089402634129742364e+04
7.159041085964887260e-10	3.286322963130033895e+04	6.278451871651290276e+04
7.393819919175865964e-10	3.386742000058194390e+04	6.473700928236838809e+04
7.636298261282244400e-10	3.490454252381974220e+04	6.675353125290540629e+04
7.886728615614152294e-10	3.597567720217422175e+04	6.883618452087484184e+04
8.145371766280743462e-10	3.708193945515444648e+04	7.098713784444748308e+04
8.412497049736117954e-10	3.822448128215319593e+04	7.320863110563684313e+04
8.688382635251186617e-10	3.940449246207456599e+04	7.550297764278668910e+04
8.973315814583522479e-10	4.062320179230281792e+04	7.787256665955152130e+04
9.267593301146878953e-10	4.188187836830302695e+04	8.031986571287925472e+04
9.571521538991863169e-10	4.318183290518583817e+04	8.284742328258637281e+04
9.885417021919573871e-10	4.452441910261254816e+04	8.545787142520176712e+04
1.020960662306046580e-09	4.552459639115369646e+04	8.754471653783263173e+04
1.054442793526168950e-09	4.633939686207411432e+04	8.935604740436971770e+04
1.089022962263730067e-09	4.718091849600580463e+04	9.122678038109141926e+04
1.124737178364752061e-09	4.805003760632629564e+04	9.315886354427665356e+04
1.161622632608501755e-09	4.894765924487536540e+04	9.515430885684365057e+04
1.199717735435884489e-09	4.987471814442530012e+04	9.721519426349519927e+04
1.239062156947916503e-09	5.083217969205907139e+04	9.934366585457361361e+04
1.279696868215940940e-09	5.182104093447017658e+04	1.015419401008785062e+05
1.321664183946605026e-09	5.284233161623121850e+04	1.038123061617753410e+05
1.365007806546013663e-09	5.389711525211191474e+04	1.061571282689971267e+05
1.409772871628966933e-09	5.498649023456383293e+04	1.085788481886229274e+05
1.456005995020649598e-09	5.611159097752447269e+04	1.110799877637956233e+05
1.503755321299737753e-09	5.727358909773229971e+04	1.136631515408279665e+05
1.553070573933460069e-09	5.847369463478269608e+04	1.163310294814308581e+05
1.604003107056820079e-09	5.971315731119508564e+04	1.190863997638882865e+05
1.656605958949914401e-09	6.099326783380398410e+04	1.219321316760963964e+05
1.710933907269014249e-09	6.231535923782845930e+04	1.248711886034785275e+05
1.767043526088946692e-09	6.368080827502028114e+04	1.279066311148887326e+05
1.824993244816152494e-09	6.509103684733578120e+04	1.310416201497159927e+05
1.884843409033795523e-09	6.654751348762481939e+04	1.342794203095092671e+05
1.946656343342262358e-09	6.805175488887836400e+04	1.376234032575501478e+05
2.010496416260498236e-09	6.960532748362737766e+04	1.410770512299134862e+05
2.076430107255774870e-09	7.120984907513785583e+04	1.446439606616729870e+05
2.144526075971667793e-09	7.286699052210006630e+04	1.483278459320261900e+05
2.214855233726359314e-09	7.457847747856717615e+04	1.521325432322407723e+05
2.287490817355702788e-09	7.634609219095444132e+04	1.560620145604487334e+05
2.362508465477946229e-09	7.817167535397040774e+04	1.601203518474483863e+05
2.439986297259550245e-09	8.005712802741325868e+04	1.643117812178119784e+05
2.520004993764092080e-09	8.200441361582750687e+04	1.686406673907337827e+05
2.602647881969005809e-09	8.401555991308348894e+04	1.731115182252042869e+05
2.688001021537606561e-09	8.609266121400773409e+04	1.777289894142408157e+05
2.776153294436799262e-09	8.823788049526428222e+04	1.824978893330652500e+05
2.867196497493770032e-09	9.045345166775706457e+04	1.874231840462759719e+05
2.961225437988034610e-09	9.274168190289904305e+04	1.925100024792281329e+05
3.058338032378433485e-09	9.510495403517139493e+04	1.977636417590094206e+05
3.158635408267817403e-09	9.754572904347309668e+04	2.031895727305699256e+05
3.262222009711669644e-09	1.000665486138465785e+05	2.087934456537536171e+05
3.369205705980266915e-09	1.026700377862464666e+05	2.145810960871608986e+05
3.479697903887691433e-09	1.053589076881090878e+05	2.205585509649723535e+05
3.593813663804627762e-09	1.081359583575683064e+05	2.267320348730593978e+05
3.711671819475765297e-09	1.110040816592577175e+05	2.331079765309179784e+05
3.833395101766601886e-09	1.139662642957365897e+05	2.396930154861770279e+05
3.959110266468459240e-09	1.170255909176736895e+05	2.464940090286495397e+05
4.088948226294862618e-09	1.201852473360297881e+05	2.535180393311300722e+05
4.223044187206674123e-09	1.234485238395818160e+05	2.607724208243709581e+05
4.361537789208003199e-09	1.268188186212452420e+05	2.682647078139204532e+05
4.504573251759458750e-09	1.302996413167612627e+05	2.760027023467522231e+05
4.652299523960189308e-09	1.338946166594340466e+05	2.839944623358783429e+05
4.804870439655131104e-09	1.376074882547250600e+05	2.922483099514085916e+05
4.962444877628916452e-09	1.414421224786331004e+05	3.007728402867899858e+05
5.125186927053329472e-09	1.454025125039214035e+05	3.095769303092550253e+05
5.293266058360561204e-09	1.494927824583836482e+05	3.186697481037973776e+05
5.466857299720180771e-09	1.537171917194785201e+05	3.280607624202995212e+05
5.646141419303669251e-09	1.580801393498070247e+05	3.377597525337584666e+05
5.831305113526221869e-09	1.625861686780484742e+05	3.477768184278727276e+05
6.022541201461928965e-09	1.672399720301286725e+05	3.581223913125991239e+05
6.220048825634711276e-09	1.720463956155437336e+05	3.688072444866278092e+05
6.424033659394191079e-09	1.770104445739313960e+05	3.798425045560922590e+05
6.634708121092347870e-09	1.821372881871420832e+05	3.912396630211908487e+05
6.852291595284060743e-09	1.874322652622382448e+05	4.030105882427899633e+05
7.077010661181889919e-09	1.929008896910292970e+05	4.151675378014696180e+05
7.309099328602911004e-09	1.985488561919279164e+05	4.277231712618782185e+05
7.548799281653435948e-09	2.043820462401107652e+05	4.406905633556937682e+05
7.796360130405233414e-09	2.104065341921560175e+05	4.540832175969136879e+05
8.052039670825474778e-09	2.166285936115375371e+05	4.679150803436576389e+05
8.316104153230961616e-09	2.230547038015615253e+05	4.822005553211210063e+05
8.588828559546249041e-09	2.296915565525489219e+05	4.969545186208049417e+05
8.870496889654407999e-09	2.365460631102906482e+05	5.121923341916443896e+05
9.161402457138517586e-09	2.436253613730300276e+05	5.279298698391595390e+05
9.461848194721997291e-09	2.509368233244702860e+05	5.441835137492999202e+05
9.772146969725725887e-09	2.584880627105437452e+05	5.609701915541798808e+05
1.009262190987047331e-08	2.657123328064857051e+05	5.773105669911381556e+05
1.042360673976401127e-08	2.717136031407497940e+05	5.916541978610523511e+05
1.076544612842315905e-08	2.779116835267994320e+05	6.064682242600905010e+05
1.111849604819270880e-08	2.843130282975213486e+05	6.217680726835246896e+05
1.148312414543511117e-08	2.909243034539200016e+05	6.375696755344060948e+05
1.185971012337669343e-08	2.977523936067151371e+05	6.538894877146718791e+05
1.224864613750930795e-08	3.048044091455896269e+05	6.707445037603571545e+05
1.265033720395903769e-08	3.119955828101680963e+05	6.879798809919173364e+05
1.306520162124721228e-08	3.188921220233098720e+05	7.047876661545364186e+05
1.349367140588306343e-08	3.260148313911150908e+05	7.221466581257147482e+05
1.393619274224142065e-08	3.333711281031742110e+05	7.400749335849712370e+05
1.439322644719406651e-08	3.409686725938214804e+05	7.585911620316831395e+05
1.486524844997857277e-08	3.488153765192821156e+05	7.777146252264556242e+05
1.535275028780422776e-08	3.569194109964253148e+05	7.974652372700619744e+05
1.585623961771137302e-08	3.652785941436907742e+05	8.178431198184513487e+05
1.637624074521687477e-08	3.731671190054892213e+05	8.374555471605493221e+05
1.691329517029648562e-08	3.813143459253666224e+05	8.577111587996121962e+05
1.746796215127245689e-08	3.897287589679640369e+05	8.786310477922318969e+05
1.804081928719382751e-08	3.984191204305487336e+05	9.002369989361386979e+05
1.863246311931559514e-08	4.073944799675776740e+05	9.225515114556638291e+05
1.924350975230330612e-08	4.166641840144998278e+05	9.455978224311692175e+05
1.987459549580983990e-08	4.262378855206089793e+05	9.693999309968374437e+05
2.052637752709252173e-08	4.353248830835119588e+05	9.923945374797412660e+05
2.119953457536071000e-08	4.445974283122098423e+05	1.015920191816301900e+06
2.189476762856620985e-08	4.541740641758893034e+05	1.040217363680048147e+06
2.261280066337277307e-08	4.640647632454035338e+05	1.065311354781454429e+06
2.335438139906479724e-08	4.742798251393939136e+05	1.091228296593809035e+06
2.412028207618007283e-08	4.848298872497327393e+05	1.117995177565057762e+06
2.491130026067788373e-08	4.957259358187084435e+05	1.145639871222065063e+06
2.572825967447932303e-08	5.061661557060656487e+05	1.172526578279260779e+06
2.657201105324503850e-08	5.166627085391224246e+05	1.199709464923657244e+06
2.744343303228365032e-08	5.275034930084126536e+05	1.227783807048340561e+06
2.834343306151309448e-08	5.386997980981641449e+05	1.256778839696803363e+06
2.927294835042816131e-08	5.502632830118166748e+05	1.286724756667953450e+06
3.023294684405776334e-08	5.622059893132614670e+05	1.317652741958239814e+06
3.122442823092858392e-08	5.745403534662493039e+05	1.349595002234915271e+06
3.224842498408442807e-08	5.864845222841047216e+05	1.380903272510179318e+06
3.330600343624588813e-08	5.982978219785802066e+05	1.412132554773170268e+06
3.439826489022924478e-08	6.104985356696142117e+05	1.444385992975997273e+06
3.552634676578139226e-08	6.230993684953654883e+05	1.477697174038150348e+06
3.669142378402493899e-08	6.361134422555933706e+05	1.512100786353141768e+06
3.789470919074667737e-08	6.495543090759608895e+05	1.547632655911045847e+06
3.913745601980383687e-08	6.634359655204606242e+05	1.584329783605680568e+06
4.042095839796305955e-08	6.770386268257786287e+05	1.620622378577173222e+06
4.174655289253134782e-08	6.902507523423855891e+05	1.656272935193401761e+06
4.311561990318228626e-08	7.038961659733897541e+05	1.693092642256621271e+06
4.452958509942655287e-08	7.179890772863451857e+05	1.731119841742312536e+06
4.598992090522439315e-08	7.325441618477668380e+05	1.770394133040765766e+06
4.749814803228499868e-08	7.475765765054378426e+05	1.810956414193658158e+06
4.905583706365045989e-08	7.631019751719017513e+05	1.852848924482980976e+06
5.066461008921269181e-08	7.785176694552750560e+05	1.894711038434286602e+06
5.232614239486661694e-08	7.931944379117230419e+05	1.935122151798294624e+06
5.404216420705915059e-08	8.083525270551365102e+05	1.976858536791622173e+06
5.581446249454960394e-08	8.240077216684119776e+05	2.019963655342071550e+06
5.764488282925879445e-08	8.401763241921693552e+05	2.064482394699719269e+06
5.953533130814369715e-08	8.568751717011968140e+05	2.110461114179969300e+06
6.148777653810024108e-08	8.741216534376385389e+05	2.157947693439550698e+06
6.350425168595962148e-08	8.914998869155402062e+05	2.205970864093199838e+06
6.558685659571428548e-08	9.076843953221041011e+05	2.251419553090052214e+06
6.773775997517751128e-08	9.243996703431017231e+05	2.298358719658625312e+06
6.995920165435375620e-08	9.416631183273642091e+05	2.346837243611312471e+06
7.225349491787214948e-08	9.594927164602673147e+05	2.396905607760854997e+06
7.462302891391107044e-08	9.779070314841613872e+05	2.448615950490301009e+06
7.707027114212294845e-08	9.969252390327352332e+05	2.502022120046996977e+06
7.959777002314985573e-08	1.016404077601745259e+06	2.556781810627221595e+06
8.220815755240541849e-08	1.034109506189515465e+06	2.607450953936987091e+06
8.490415204088747078e-08	1.052395579561331542e+06	2.659781778218158986e+06
8.768856094587425811e-08	1.071281339807226788e+06	2.713828777852729429e+06
9.056428379445295063e-08	1.090786453497472219e+06	2.769648234351341613e+06
9.353431520292386860e-08	1.110931232162237167e+06	2.827298274961684830e+06
9.660174799522647250e-08	1.131736653442879906e+06	2.886838933198960964e+06
9.976977642363202159e-08	1.153224382936882088e+06	2.948332211361407302e+06
1.030416994950587396e-07	1.172636690319472458e+06	3.004806784975054674e+06
1.064209244064724761e-07	1.192468294498981209e+06	3.062583463628644589e+06
1.099109700929497372e-07	1.212950270821079146e+06	3.122254912969844881e+06
1.135154708920999096e-07	1.234103948065830395e+06	3.183883271495404188e+06
1.172381803286598596e-07	1.255951354484923417e+06	3.247532715517414268e+06
1.210829750232039531e-07	1.278515240740654990e+06	3.313269525992917828e+06
1.250538587290391570e-07	1.301819103597193956e+06	3.381162157545173075e+06
1.291549665014884007e-07	1.323150835418950301e+06	3.444105086208828259e+06
1.333905690039058854e-07	1.344455617493573809e+06	3.507206896145522594e+06
1.377650769549053468e-07	1.366459084184926003e+06	3.572378113022691570e+06
1.422830457214352017e-07	1.389184148667708971e+06	3.639686602486179210e+06
1.469491800624817218e-07	1.412654475548046175e+06	3.709202455817493610e+06
1.517683390283405561e-07	1.436894505506473826e+06	3.780998062922923360e+06
1.567455410205594968e-07	1.461929480749095092e+06	3.855148187716334127e+06
1.618859690178197646e-07	1.485192182322031585e+06	3.924690944861925673e+06
1.671949759731990056e-07	1.507842769669822883e+06	3.992782080527629238e+06
1.726780903884356132e-07	1.531236176957491087e+06	4.063106246733543929e+06
1.783410220710008120e-07	1.555396764765829314e+06	4.135736675117604900e+06
1.841896680799711039e-07	1.580349692574346438e+06	4.210748998929681256e+06
1.902301188668944219e-07	1.606120944960936438e+06	4.288221331791791134e+06
1.964686646180446931e-07	1.632737358660761267e+06	4.368234349041252397e+06
2.029118018046678038e-07	1.657894525333344471e+06	4.444331837702569552e+06
2.095662399480432992e-07	1.681701461095138686e+06	4.516825274555716664e+06
2.164389086064020114e-07	1.706289138933052542e+06	4.591696114236345515e+06
2.235369645909794139e-07	1.731683163074170472e+06	4.669022323032846674e+06
2.308677994187169850e-07	1.757909977429340594e+06	4.748884424117141403e+06
2.384390470093720426e-07	1.784996893130375771e+06	4.831365581396977417e+06
2.462585916350547006e-07	1.812972116970337695e+06	4.916551686118170619e+06
2.543345761304648365e-07	1.839928429155854974e+06	4.998936237815689296e+06
2.626754103723835758e-07	1.864634757697203197e+06	5.074966655727835372e+06
2.712897800372467241e-07	1.890151323659767630e+06	5.153490470813099295e+06
2.801866556459195443e-07	1.916504698562565725e+06	5.234589453363334760e+06
2.893753019050950594e-07	1.943722325330460677e+06	5.318348055305204354e+06
2.988652873550382326e-07	1.971832546871678671e+06	5.404853498143664561e+06
3.086664943337274455e-07	2.000864635592524428e+06	5.494195863789544441e+06
3.187891292677645596e-07	2.029454990591706475e+06	5.582330881241307594e+06
3.292437333007768907e-07	2.054733354137684219e+06	5.660742187060043216e+06
3.400411932703706463e-07	2.080840714839502238e+06	5.741724970632519573e+06
3.511927530450727317e-07	2.107804259436647408e+06	5.825363562882305123e+06
3.627100252330649086e-07	2.135652066250441596e+06	5.911745060343003832e+06
3.746050032748993774e-07	2.164413134423223790e+06	6.000959415855681524e+06
3.868900739327976195e-07	2.194117414116435684e+06	6.093099532240719534e+06
3.995780301895269929e-07	2.224096409215388354e+06	6.186136605770463124e+06
4.126820845702951630e-07	2.249549634341224562e+06	6.265489566901938990e+06
4.262158829015325345e-07	2.275837591161536053e+06	6.347444887120698579e+06
4.401935185208874400e-07	2.302987654478466138e+06	6.432087910095361061e+06
4.546295469532399562e-07	2.331028096843457315e+06	6.519506778317285702e+06
4.695390010680058238e-07	2.359988117998697329e+06	6.609792524887208827e+06
4.849374067335232931e-07	2.389897875284090172e+06	6.703039168311993591e+06
5.008407989848212921e-07	2.420788515041419305e+06	6.799343810410241596e+06
5.172657387216018967e-07	2.446096702116740867e+06	6.878387958072687499e+06
