Frequency [GHz]	Zx imag [Ohm/m]	Zy imag [Ohm/m]
1.000000000000000166e-10	1.574491392073654197e+07	4.384691715441648662e+07
1.032794731918951654e-10	1.574487075034779683e+07	4.384685202773459256e+07
1.066664958279539403e-10	1.574482616419772618e+07	4.384678476524062455e+07
1.101645949633656381e-10	1.574478011585681513e+07	4.384671529689119756e+07
1.137774133221491146e-10	1.574473255737291090e+07	4.384664355034586787e+07
1.175087130904807540e-10	1.574468343922127597e+07	4.384656945089182258e+07
1.213623798344240958e-10	1.574463271025302261e+07	4.384649292136605084e+07
1.253424265461399975e-10	1.574458031764185987e+07	4.384641388207499683e+07
1.294529978227915867e-10	1.574452620682905614e+07	4.384633225071157515e+07
1.336983741824946476e-10	1.574447032146665454e+07	4.384624794226947427e+07
1.380829765218092491e-10	1.574441260335877351e+07	4.384616086895462126e+07
1.426113707194128486e-10	1.574435299240101874e+07	4.384607094009374827e+07
1.472882723907502473e-10	1.574429142651788145e+07	4.384597806203999370e+07
1.521185517986104510e-10	1.574422784159811586e+07	4.384588213807535917e+07
1.571072389247450498e-10	1.574416217142795026e+07	4.384578306831002980e+07
1.622595287078087593e-10	1.574409434762215987e+07	4.384568074957829714e+07
1.675807864530767868e-10	1.574402429955283925e+07	4.384557507533118874e+07
1.730765534195724819e-10	1.574395195427586697e+07	4.384546593552546948e+07
1.787525525904235329e-10	1.574387723645492643e+07	4.384535321650908887e+07
1.846146946324547531e-10	1.574380006828308292e+07	4.384523680090278387e+07
1.906690840512252406e-10	1.574372036940172873e+07	4.384511656747787446e+07
1.969220255479172543e-10	1.574363805681692623e+07	4.384499239103002846e+07
2.033800305846981002e-10	1.574355304481297173e+07	4.384486414224886894e+07
2.100498241653915480e-10	1.574346524486313760e+07	4.384473168758330494e+07
2.169383518385184289e-10	1.574337456553748809e+07	4.384459488910249621e+07
2.240527869300018610e-10	1.574328091240766086e+07	4.384445360435218364e+07
2.314005380130653023e-10	1.574318418794854730e+07	4.384430768620636314e+07
2.389892566231049743e-10	1.574308429143672995e+07	4.384415698271405697e+07
2.468268452255692806e-10	1.574298111884558760e+07	4.384400133694113046e+07
2.549214654451423314e-10	1.574287456273697503e+07	4.384384058680680394e+07
2.632815465648021228e-10	1.574276451214934699e+07	4.384367456491491944e+07
2.719157943036017723e-10	1.574265085248219967e+07	4.384350309837959707e+07
2.808331998823172083e-10	1.574253346537673846e+07	4.384332600864521414e+07
2.900430493863991314e-10	1.574241222859262303e+07	4.384314311130046844e+07
2.995549334359813486e-10	1.574228701588067599e+07	4.384295421588632464e+07
3.093787571730138678e-10	1.574215769685140625e+07	4.384275912569772452e+07
3.195247505759212065e-10	1.574202413683923893e+07	4.384255763757868111e+07
3.300034791125284578e-10	1.574188619676227681e+07	4.384234954171079397e+07
3.408258547423451742e-10	1.574174373297747225e+07	4.384213462139470875e+07
3.520031472796679687e-10	1.574159659713103436e+07	4.384191265282446891e+07
3.635469961293320139e-10	1.574144463600395806e+07	4.384168340485447645e+07
3.754694224073336536e-10	1.574128769135245681e+07	4.384144663875875622e+07
3.877828414589456106e-10	1.574112559974318370e+07	4.384120210798241198e+07
4.005000757873611052e-10	1.574095819238303974e+07	4.384094955788480490e+07
4.136343684063274911e-10	1.574078529494339600e+07	4.384068872547444701e+07
4.271993966306778827e-10	1.574060672737857141e+07	4.384041933913511783e+07
4.412092863191189219e-10	1.574042230373832770e+07	4.384014111834301054e+07
4.556786265841064474e-10	1.574023183197424188e+07	4.383985377337460965e+07
4.706224849841281415e-10	1.574003511373971775e+07	4.383955700500500202e+07
4.860564232142136024e-10	1.573983194418342598e+07	4.383925050419627875e+07
5.019965133110081441e-10	1.573962211173600517e+07	4.383893395177569240e+07
5.184593543892912175e-10	1.573940539788972028e+07	4.383860701810333133e+07
5.354620899273606527e-10	1.573918157697094418e+07	4.383826936272884160e+07
5.530224256192902378e-10	1.573895041590513848e+07	4.383792063403685391e+07
5.711586478126431938e-10	1.573871167397414893e+07	4.383756046888090670e+07
5.898896425508497150e-10	1.573846510256553628e+07	4.383718849220521748e+07
6.092349152400710261e-10	1.573821044491367973e+07	4.383680431665417552e+07
6.292146109610343618e-10	1.573794743583239801e+07	4.383640754216892272e+07
6.498495354469890483e-10	1.573767580143880285e+07	4.383599775557079166e+07
6.711611767496282870e-10	1.573739525886809267e+07	4.383557453013103455e+07
6.931717276155404727e-10	1.573710551597898081e+07	4.383513742512644082e+07
7.159041085964887260e-10	1.573680627104949765e+07	4.383468598538040370e+07
7.393819919175865964e-10	1.573649721246277355e+07	4.383421974078890681e+07
7.636298261282244400e-10	1.573617801838254929e+07	4.383373820583103597e+07
7.886728615614152294e-10	1.573584835641803592e+07	4.383324087906330079e+07
8.145371766280743462e-10	1.573550788327777013e+07	4.383272724259755015e+07
8.412497049736117954e-10	1.573515624441214465e+07	4.383219676156159490e+07
8.688382635251186617e-10	1.573479307364418916e+07	4.383164888354227692e+07
8.973315814583522479e-10	1.573441799278825708e+07	4.383108303801020235e+07
9.267593301146878953e-10	1.573403061125620641e+07	4.383049863572558761e+07
9.571521538991863169e-10	1.573363052565066330e+07	4.382989506812471151e+07
9.885417021919573871e-10	1.573321731934493966e+07	4.382927170668617636e+07
1.020960662306046580e-09	1.573283026169990189e+07	4.382863911124793440e+07
1.054442793526168950e-09	1.573245292441924661e+07	4.382799209842593223e+07
1.089022962263730067e-09	1.573206321246363036e+07	4.382732386699188501e+07
1.124737178364752061e-09	1.573166072000890225e+07	4.382663372108709067e+07
1.161622632608501755e-09	1.573124502792202495e+07	4.382592094203236699e+07
1.199717735435884489e-09	1.573081570332459547e+07	4.382518478757963330e+07
1.239062156947916503e-09	1.573037229914208874e+07	4.382442449113896489e+07
1.279696868215940940e-09	1.572991435363828205e+07	4.382363926098034531e+07
1.321664183946605026e-09	1.572944138993444853e+07	4.382282827940917760e+07
1.365007806546013663e-09	1.572895291551273689e+07	4.382199070191479474e+07
1.409772871628966933e-09	1.572844842170331813e+07	4.382112565629102290e+07
1.456005995020649598e-09	1.572792738315466419e+07	4.382023224172792584e+07
1.503755321299737753e-09	1.572738925728648715e+07	4.381930952787373215e+07
1.553070573933460069e-09	1.572683348372472636e+07	4.381835655386605859e+07
1.604003107056820079e-09	1.572625948371799663e+07	4.381737232733127475e+07
1.656605958949914401e-09	1.572566665953492746e+07	4.381635582335112989e+07
1.710933907269014249e-09	1.572505439384169877e+07	4.381530598339547217e+07
1.767043526088946692e-09	1.572442204905919731e+07	4.381422171421990544e+07
1.824993244816152494e-09	1.572376896669907309e+07	4.381310188672739267e+07
1.884843409033795523e-09	1.572309446667802706e+07	4.381194533479247987e+07
1.946656343342262358e-09	1.572239784660961293e+07	4.381075085404689610e+07
2.010496416260498236e-09	1.572167838107280619e+07	4.380951720062548667e+07
2.076430107255774870e-09	1.572093532085659169e+07	4.380824308987084776e+07
2.144526075971667793e-09	1.572016789217979088e+07	4.380692719499556720e+07
2.214855233726359314e-09	1.571937529588526487e+07	4.380556814570061862e+07
2.287490817355702788e-09	1.571855670660774037e+07	4.380416452674838156e+07
2.362508465477946229e-09	1.571771127191430889e+07	4.380271487648888677e+07
2.439986297259550245e-09	1.571683811141674966e+07	4.380121768533775210e+07
2.520004993764092080e-09	1.571593631585475244e+07	4.379967139420419186e+07
2.602647881969005809e-09	1.571500494614905305e+07	4.379807439286743104e+07
2.688001021537606561e-09	1.571404303242353909e+07	4.379642501829995960e+07
2.776153294436799262e-09	1.571304957299526408e+07	4.379472155293571204e+07
2.867196497493770032e-09	1.571202353333136998e+07	4.379296222288151830e+07
2.961225437988034610e-09	1.571096384497175738e+07	4.379114519606983662e+07
3.058338032378433485e-09	1.570986940441647545e+07	4.378926858035097271e+07
3.158635408267817403e-09	1.570873907197658345e+07	4.378733042152269930e+07
3.262222009711669644e-09	1.570757167058734410e+07	4.378532870129522681e+07
3.369205705980266915e-09	1.570636598458250239e+07	4.378326133518952131e+07
3.479697903887691433e-09	1.570512075842835568e+07	4.378112617036660761e+07
3.593813663804627762e-09	1.570383469541630335e+07	4.377892098338571936e+07
3.711671819475765297e-09	1.570250645631253906e+07	4.377664347788896412e+07
3.833395101766601886e-09	1.570113465796344355e+07	4.377429128220999241e+07
3.959110266468459240e-09	1.569971787185524218e+07	4.377186194690430909e+07
4.088948226294862618e-09	1.569825462262643501e+07	4.376935294219853729e+07
4.223044187206674123e-09	1.569674338653144054e+07	4.376676165535605699e+07
4.361537789208003199e-09	1.569518258985384367e+07	4.376408538795625418e+07
4.504573251759458750e-09	1.569357060726762563e+07	4.376132135308452696e+07
4.652299523960189308e-09	1.569190576014463417e+07	4.375846667243017256e+07
4.804870439655131104e-09	1.569018631480655819e+07	4.375551837328904122e+07
4.962444877628916452e-09	1.568841048071957007e+07	4.375247338546796143e+07
5.125186927053329472e-09	1.568657640862976760e+07	4.374932853808759153e+07
5.293266058360561204e-09	1.568468218863745965e+07	4.374608055628045648e+07
5.466857299720180771e-09	1.568272584820830822e+07	4.374272605778067559e+07
5.646141419303669251e-09	1.568070535011923872e+07	4.373926154940187186e+07
5.831305113526221869e-09	1.567861859033699892e+07	4.373568342339955270e+07
6.022541201461928965e-09	1.567646339582712017e+07	4.373198795371422172e+07
6.220048825634711276e-09	1.567423752229105495e+07	4.372817129209124297e+07
6.424033659394191079e-09	1.567193865182909183e+07	4.372422946407350898e+07
6.634708121092347870e-09	1.566956439052660950e+07	4.372015836486267298e+07
6.852291595284060743e-09	1.566711226596120745e+07	4.371595375504459441e+07
7.077010661181889919e-09	1.566457972462805174e+07	4.371161125617471337e+07
7.309099328602911004e-09	1.566196412928080186e+07	4.370712634621852636e+07
7.548799281653435948e-09	1.565926275618533045e+07	4.370249435484265536e+07
7.796360130405233414e-09	1.565647279228337854e+07	4.369771045855135471e+07
8.052039670825474778e-09	1.565359133226319961e+07	4.369276967566366494e+07
8.316104153230961616e-09	1.565061537553412467e+07	4.368766686112569273e+07
8.588828559546249041e-09	1.564754182310191728e+07	4.368239670115292072e+07
8.870496889654407999e-09	1.564436747434165515e+07	4.367695370769666135e+07
9.161402457138517586e-09	1.564108902366478369e+07	4.367133221272917837e+07
9.461848194721997291e-09	1.563770305707685463e+07	4.366552636234125495e+07
9.772146969725725887e-09	1.563420604862238839e+07	4.365953011064629257e+07
1.009262190987047331e-08	1.563069526740057766e+07	4.365338351253071427e+07
1.042360673976401127e-08	1.562732573583884723e+07	4.364715297082586586e+07
1.076544612842315905e-08	1.562384570139285922e+07	4.364071810017608851e+07
1.111849604819270880e-08	1.562025154015014693e+07	4.363407219966842234e+07
1.148312414543511117e-08	1.561653950935300440e+07	4.362720834863524884e+07
1.185971012337669343e-08	1.561270574350099638e+07	4.362011939944750071e+07
1.224864613750930795e-08	1.560874625032563135e+07	4.361279797007156909e+07
1.265033720395903769e-08	1.560467841010119207e+07	4.360524955085428059e+07
1.306520162124721228e-08	1.560060100480096415e+07	4.359752910960860550e+07
1.349367140588306343e-08	1.559638988208699226e+07	4.358955547856198251e+07
1.393619274224142065e-08	1.559204065673253872e+07	4.358132035442277044e+07
1.439322644719406651e-08	1.558754879969852790e+07	4.357281516159508377e+07
1.486524844997857277e-08	1.558290963341726921e+07	4.356403104324870557e+07
1.535275028780422776e-08	1.557811832692149095e+07	4.355495885209600627e+07
1.585623961771137302e-08	1.557317259961575642e+07	4.354559097426092625e+07
1.637624074521687477e-08	1.556825463327601925e+07	4.353604444617746025e+07
1.691329517029648562e-08	1.556317538354858384e+07	4.352618484226474166e+07
1.746796215127245689e-08	1.555792956118798815e+07	4.351600189528488368e+07
1.804081928719382751e-08	1.555251170348937996e+07	4.350548500128866732e+07
1.863246311931559514e-08	1.554691616859997436e+07	4.349462320857322961e+07
1.924350975230330612e-08	1.554113712964392453e+07	4.348340520627752692e+07
1.987459549580983990e-08	1.553516856865456142e+07	4.347181931260387599e+07
2.052637752709252173e-08	1.552922719958693348e+07	4.346002080868469179e+07
2.119953457536071000e-08	1.552312229637568071e+07	4.344785888052693009e+07
2.189476762856620985e-08	1.551681718450022303e+07	4.343529810519562662e+07
2.261280066337277307e-08	1.551030529817108996e+07	4.342232540260463208e+07
2.335438139906479724e-08	1.550357985627550818e+07	4.340892726370990276e+07
2.412028207618007283e-08	1.549663385531592369e+07	4.339508973644190282e+07
2.491130026067788373e-08	1.548946006211696193e+07	4.338079841117673367e+07
2.572825967447932303e-08	1.548229798291032575e+07	4.336624392943576723e+07
2.657201105324503850e-08	1.547498790583623014e+07	4.335128443580259383e+07
2.744343303228365032e-08	1.546743809674418345e+07	4.333583434958607703e+07
2.834343306151309448e-08	1.545964069368692487e+07	4.331987758193396777e+07
2.927294835042816131e-08	1.545158757688673772e+07	4.330339751636441797e+07
3.023294684405776334e-08	1.544327036027997918e+07	4.328637699146250635e+07
3.122442823092858392e-08	1.543468038278428838e+07	4.326879828300931305e+07
3.224842498408442807e-08	1.542607184982039407e+07	4.325088562154512107e+07
3.330600343624588813e-08	1.541735404411509633e+07	4.323254500530130416e+07
3.439826489022924478e-08	1.540835034030877240e+07	4.321360291346454620e+07
3.552634676578139226e-08	1.539905136244984157e+07	4.319403962080400437e+07
3.669142378402493899e-08	1.538944742710490897e+07	4.317383475520522147e+07
3.789470919074667737e-08	1.537952853327497095e+07	4.315296727645565569e+07
3.913745601980383687e-08	1.536928435198094696e+07	4.313141545433468372e+07
4.042095839796305955e-08	1.535896916548781283e+07	4.310942694500941038e+07
4.174655289253134782e-08	1.534861759292965755e+07	4.308702509321371466e+07
4.311561990318228626e-08	1.533792654332451522e+07	4.306388857869388163e+07
4.452958509942655287e-08	1.532688488361363858e+07	4.303999330838283151e+07
4.598992090522439315e-08	1.531548111563260481e+07	4.301531439908780158e+07
4.749814803228499868e-08	1.530370336413776688e+07	4.298982615157838911e+07
4.905583706365045989e-08	1.529153936444004811e+07	4.296350202382481843e+07
5.066461008921269181e-08	1.527921970908311382e+07	4.293658846108558029e+07
5.232614239486661694e-08	1.526698521321179159e+07	4.290934298574058712e+07
5.404216420705915059e-08	1.525434949032820389e+07	4.288120400233564526e+07
5.581446249454960394e-08	1.524129938230004907e+07	4.285214220851346105e+07
5.764488282925879445e-08	1.522782129947759397e+07	4.282212734095379710e+07
5.953533130814369715e-08	1.521390120654219761e+07	4.279112814385893941e+07
6.148777653810024108e-08	1.519952460789069720e+07	4.275911233640564978e+07
6.350425168595962148e-08	1.518486227356239781e+07	4.272627699421028793e+07
6.558685659571428548e-08	1.517047415991908684e+07	4.269330150122421235e+07
6.773775997517751128e-08	1.515561419194602221e+07	4.265924458578575402e+07
6.995920165435375620e-08	1.514026689530695602e+07	4.262407078293550760e+07
7.225349491787214948e-08	1.512441628818893433e+07	4.258774346465022117e+07
7.462302891391107044e-08	1.510804586465972289e+07	4.255022480170043558e+07
7.707027114212294845e-08	1.509113857747947052e+07	4.251147572425725311e+07
7.959777002314985573e-08	1.507375285802716762e+07	4.247155955487666279e+07
8.220815755240541849e-08	1.505692179366992973e+07	4.243186797600557655e+07
8.490415204088747078e-08	1.503953875906918384e+07	4.239087472244597971e+07
8.768856094587425811e-08	1.502158565250877105e+07	4.234853710612539947e+07
9.056428379445295063e-08	1.500304377863159589e+07	4.230481103902750462e+07
9.353431520292386860e-08	1.498389382897134311e+07	4.225965098728127033e+07
9.660174799522647250e-08	1.496411586184572056e+07	4.221300992374456674e+07
9.976977642363202159e-08	1.494368928159031272e+07	4.216483927903276682e+07
1.030416994950587396e-07	1.492400512981194444e+07	4.211719852560415119e+07
1.064209244064724761e-07	1.490378584391598403e+07	4.206816031938712299e+07
1.099109700929497372e-07	1.488290347195947357e+07	4.201751391834342480e+07
1.135154708920999096e-07	1.486133626821281761e+07	4.196520658215483278e+07
1.172381803286598596e-07	1.483906177380104922e+07	4.191118384089854360e+07
1.210829750232039531e-07	1.481605679331641644e+07	4.185538943832523376e+07
1.250538587290391570e-07	1.479229737066398934e+07	4.179776527327694744e+07
1.291549665014884007e-07	1.476927390468171611e+07	4.174072175794591010e+07
1.333905690039058854e-07	1.474589766600497626e+07	4.168246342159020156e+07
1.377650769549053468e-07	1.472175480984755978e+07	4.162229451871166378e+07
1.422830457214352017e-07	1.469682019519470260e+07	4.156015239279336482e+07
1.469491800624817218e-07	1.467106785653880052e+07	4.149597233251470327e+07
1.517683390283405561e-07	1.464447097684039548e+07	4.142968750436466187e+07
1.567455410205594968e-07	1.461700185960239917e+07	4.136122888304514438e+07
1.618859690178197646e-07	1.459019825763393752e+07	4.129330079298703372e+07
1.671949759731990056e-07	1.456334614959753677e+07	4.122461669938954711e+07
1.726780903884356132e-07	1.453561343387662061e+07	4.115368012935543805e+07
1.783410220710008120e-07	1.450697123117825575e+07	4.108041721352382004e+07
1.841896680799711039e-07	1.447738971512082964e+07	4.100475166000789404e+07
1.902301188668944219e-07	1.444683808117454313e+07	4.092660467494891584e+07
1.964686646180446931e-07	1.441528451458330080e+07	4.084589488046465069e+07
2.029118018046678038e-07	1.438423451034046523e+07	4.076548629898353666e+07
2.095662399480432992e-07	1.435360110443839431e+07	4.068519050515586138e+07
2.164389086064020114e-07	1.432196308420200087e+07	4.060226143229538947e+07
2.235369645909794139e-07	1.428928750357350707e+07	4.051661272272218019e+07
2.308677994187169850e-07	1.425554033603800647e+07	4.042815518667929620e+07
2.384390470093720426e-07	1.422068643919015490e+07	4.033679670945568383e+07
2.462585916350547006e-07	1.418468951813884825e+07	4.024244215546300262e+07
2.543345761304648365e-07	1.414890919612770900e+07	4.014787292295855284e+07
2.626754103723835758e-07	1.411421670503121801e+07	4.005486307255212218e+07
2.712897800372467241e-07	1.407838648298961483e+07	3.995880298903578520e+07
2.801866556459195443e-07	1.404138121842156351e+07	3.985959264083242416e+07
2.893753019050950594e-07	1.400316237612241134e+07	3.975712871585614234e+07
2.988652873550382326e-07	1.396369015713580698e+07	3.965130451392890513e+07
3.086664943337274455e-07	1.392292345730929077e+07	3.954200983566892147e+07
3.187891292677645596e-07	1.388192212693781964e+07	3.943155978709302098e+07
3.292437333007768907e-07	1.384293693628687225e+07	3.932489299720518291e+07
3.400411932703706463e-07	1.380267323675971664e+07	3.921472809853832424e+07
3.511927530450727317e-07	1.376108910000050254e+07	3.910095037155280262e+07
3.627100252330649086e-07	1.371814122262418829e+07	3.898344133451243490e+07
3.746050032748993774e-07	1.367378488112283126e+07	3.886207862010428309e+07
3.868900739327976195e-07	1.362797388529303111e+07	3.873673584801216424e+07
3.995780301895269929e-07	1.358126842701252177e+07	3.860870521086750180e+07
4.126820845702951630e-07	1.353781926653203182e+07	3.848768162311312556e+07
4.262158829015325345e-07	1.349294520248147845e+07	3.836268909924247861e+07
4.401935185208874400e-07	1.344659950553027168e+07	3.823359747905961424e+07
4.546295469532399562e-07	1.339873391387195699e+07	3.810027233379986882e+07
4.695390010680058238e-07	1.334929858296706527e+07	3.796257482614327967e+07
4.849374067335232931e-07	1.329824203363782354e+07	3.782036156563718617e+07
5.008407989848212921e-07	1.324551109846062027e+07	3.767348445937746763e+07
5.172657387216018967e-07	1.319737198808421940e+07	3.753739593479993939e+07
