# Frequency (Hz)	Imaginary Part (Ohm/m)
1000.0	28834792.96074735
1018.6101701559753	28743815.073401622
1037.566678745186	28651356.27686526
1056.875971184804	28557390.97664739
1076.544612842316	28462099.207281813
1096.5792912678098	28365242.140067887
1116.9868184678226	28266792.571991477
1137.7741332214914	28166924.864489973
1158.9483034398106	28065402.627807643
1180.5165285688056	27962196.960601307
1202.4861420374123	27857476.495571256
1224.8646137509306	27751007.154485807
1247.6595526308697	27642758.242806025
1270.8787092020582	27543601.823030006
1294.529978227916	27453077.238821942
1318.6214013947485	27361065.783265334
1343.1611700460153	27267731.78938908
1368.1576279674719	27172852.86641845
1393.6192742241421	27076402.041600984
1419.5547660501015	26978538.14755165
1445.9729217920196	26879041.104393657
1472.8827239075017	26777882.26129765
1500.2933220192183	26675214.90237827
1528.2140360258693	26570821.125717852
1556.654359271062	26464670.50884786
1585.6239617711371	26357436.19049882
1615.1326935030913	26269069.390325744
1645.1905877536624	26179240.147668548
1675.8078645307671	26088097.838434476
1706.994934038408	25995435.976514336
1738.7624002162504	25901227.918673333
1771.1210643450886	25805617.74169767
1804.0819287193829	25708401.123859547
1837.6562003881704	25609549.770276107
1871.8552949655793	25509202.41673804
1906.690840512252	25407156.76945181
1942.1746814890264	25303382.789929412
1978.3188827841643	25198013.82700836
2015.1357338155585	25102262.254063975
2052.6377527092523	25014807.04604506
2090.83769055575	24926053.27478143
2129.748535745521	24835809.72708909
2169.3835183851843	24744050.17795331
2209.756114795903	24650904.78532002
2250.880052095462	24556184.341085725
2292.7693128656488	24459861.00040322
2335.438139906479	24362059.808271155
2378.9010410788933	24262593.42343353
2423.1727942376006	24161432.29112232
2468.2684522556924	24058696.30227121
2514.2033481427966	23955257.418231726
2560.9931002584594	23870326.754972648
2608.6536176225477	23784116.417230107
2657.201105324507	23696449.756616455
2706.652070033241	23607301.04213255
2757.0233256095826	23516787.389044464
2808.3319988231724	23424733.98662998
2860.595535175742	23331113.520364206
2913.8317048327885	23236038.235119533
2968.058608665602	23139335.019305322
3023.2946844057765	23040974.886870105
3079.5587129142264	22941065.175059628
3136.8698245668766	22839434.327559985
3195.2475057592137	22747960.99645394
3254.711605531848	22664408.449181367
3315.282342319423	22579435.99336684
3376.9803108250912	22493018.45483864
3439.8264890229248	22405260.801921166
3503.8422452906757	22316001.853625886
3569.0493456752297	22225214.892175857
3635.4699612933177	22133000.26717487
3703.126675869927	22039198.32619909
3772.0424934169973	21943780.72212696
3842.240846055061	21846843.151635263
3913.745601980384	21748227.348370817
3986.581073580439	21649472.222779803
4060.7720257003652	21568659.206191283
4136.343684063274	21486465.06918867
4213.321743847289	21402865.246501416
4291.732378422157	21317953.45998834
4371.602248248502	21231581.359549083
4452.958509942656	21143722.879111864
4535.828825510186	21054467.377921943
4620.241371751313	20963667.86438553
4706.224849841282	20871296.688288458
4793.808495089107	20777438.81431916
4883.02208687788	20681948.469344564
4973.895958790063	20584796.3309142
5066.461008921268	20498281.642845143
5160.7487103859075	20418926.923147295
5256.791122018419	20338207.91675681
5354.620899273607	20256207.992394775
5454.271305329837	20172790.81961824
5555.7762223988775	20087931.03077243
5659.170163246243	20001707.888540294
5764.488282925873	19913986.254459582
5871.766390733255	19824739.224389292
5981.040962380944	19734041.92463485
6092.349152400711	19641760.272045255
6205.7288067765	19547865.740545806
6321.218475812449	19454472.44778075
6438.857427240419	19378001.072490774
6558.685659571435	19300208.482656855
6680.743915695614	19221168.56881511
6805.073696735207	19140756.211779404
6931.7172761554075	19058946.78250245
7060.717714137772	18975810.319200583
7192.118872221193	18891222.734279785
7325.9654282152305	18805157.911865424
7462.302891391108	18717682.008573018
7601.17761795533	18628671.835879754
7742.63682681127	18538099.708379403
7886.728615614156	18446027.8667699
8033.501977124734	18364708.958686188
8183.006815867389	18289870.48883549
8335.293965098195	18213820.46014719
8490.415204088747	18136444.170060903
8648.423275731726	18057717.761355698
8809.37190447399	17977702.887515012
8973.31581458352	17896285.725374594
9140.310748756232	17813440.982088346
9310.413487069076	17729226.67822999
9483.681866285928	17643529.74227431
9660.174799522645	17556323.365863636
9839.952296278227	17467661.90301722
10023.075482838643	17379900.694332253
10209.606623060476	17308024.195839837
10399.609139541202	17234973.643609505
10593.147635183701	17160643.979137387
10790.287915161836	17085012.142338242
10991.097009294961	17008132.20031639
11195.643194838794	16929899.83144046
11403.996019700331	16850290.592249446
11616.226326085018	16769355.157350238
11832.40627458378	16686989.819449553
12052.609368708414	16603168.674692377
12276.910479883603	16517938.971924184
12505.385872903913	16431197.49197944
12738.113231864785	16355297.379212243
12975.171686575868	16285237.351729687
13216.641839466038	16213945.94512458
13462.60579298911	16141400.914266827
13713.147177539457	16067649.491289265
13968.351179887397	15992596.123748807
14228.30457214352	15916217.235979255
14493.095741262152	15838556.89809308
14762.81471909391	15759520.045668745
15037.553212997384	15679081.698382221
15317.404637020798	15597282.731245263
15602.46414366368	15514028.447397375
15892.828656229764	15432125.472739939
16188.596901781992	15365034.103288341
16489.86944471065	15296759.388547754
16796.74872092653	15227279.91049404
17109.339072690134	15156636.768528918
17427.746784089173	15084742.484088108
17752.08011717636	15011574.361702187
18082.44934877952	14937170.55820472
18418.96680799711	14861443.968230493
18761.746914391195	14784370.547651412
19110.90621689136	14705985.477725428
19466.563433422634	14626201.911737302
19828.839491270715	14544994.381608767
20197.857568198782	14474655.200174207
20573.743134329117	14409369.230285859
20956.623994804308	14342927.50600118
21346.630333242454	14275365.64696912
21743.8947560008	14206603.595371062
22148.552337263594	14136619.544708228
22560.74066496859	14065446.379926793
22980.599887588487	13993004.313326651
23408.272761782944	13919270.245804077
23843.904700937204	13844274.294634009
24287.643824604504	13767936.833659004
24739.641008868115	13690233.398956688
25200.049937640895	13614330.750719436
25669.02715491952	13552005.762943024
26146.73211801092	13488574.133654023
26633.327251749808	13424066.607767101
27128.978003724646	13358409.94082394
27633.85290053167	13291583.222773539
28148.123605075813	13223614.65999957
28671.9649749377	13154431.186872778
29205.555121827452	13084010.656778801
29749.075472144435	13012378.704673983
30302.71082866393	12939462.341141753
30866.649433372746	12865238.113870572
31441.083031472648	12789729.048965514
32026.206936576502	12724915.153899819
32622.220097116733	12664472.243218122
33229.325163989684	12602998.405601464
33847.72855945983	12540426.650481174
34477.64054734464	12476736.972607912
35119.275304507275	12411953.447759636
35772.850993678774	12346009.184606481
36438.58983763541	12278882.997428982
37116.71819475767	12210596.575489061
37807.46663599349	12141083.029972805
38511.07002325569	12070319.928644149
39227.76758927724	11998326.537186127
39957.803018952654	11928427.487928998
40701.42453219439	11870962.78283768
41458.88496832911	11812512.96186592
42230.44187206672	11753016.777451914
43016.357581068	11692455.140027096
43816.89931514195	11630848.500360264
44632.33926710398	11568135.642037487
45462.95469532399	11504296.351327905
46309.02801799737	11439348.866664935
47170.84690917022	11373231.91185545
48048.70439655134	11305924.086064856
48942.898961145314	11237441.378836922
49853.73463873893	11167722.36040015
50781.5211232767	11108527.29108818
51726.57387216025	11053104.756639061
52689.21421350677	10996687.940231392
53669.76945540476	10939258.682114258
54668.57299720181	10880834.273969207
55685.96444286409	10821358.722242873
56722.28971644549	10760812.799752492
57777.90117970507	10699211.750062253
58853.15775191451	10636499.468627188
59948.42503189409	10572655.60102627
61064.07542232036	10507693.306843929
62200.48825634718	10441556.282563524
63358.04992658254	10377813.261018172
64537.15401646702	10325432.963266565
65738.20143409586	10272111.168187084
66961.60054853215	10217830.66286788
68207.76732865692	10162606.0081221
69477.1254846024	10106386.025858553
70770.10661181889	10049152.493075425
72087.15033782135	9990918.07754875
73428.70447166757	9931631.449639611
74795.2251562183	9871273.319625998
76187.17702322999	9809854.427283954
77605.0333513357	9747323.209143931
79049.2762269642	9683659.24889241
80520.3967082547	9630309.503196323
82018.89499202212	9580105.67159554
83545.28058382872	9528997.67760259
85100.07247122246	9476997.742769025
86683.79930019774	9424059.137612494
88296.99955494083	9370164.662452959
89940.22174092053	9315324.792528106
91614.0245713852	9259492.61634553
93318.97715733238	9202649.928787338
95055.6592010119	9144805.42493334
96824.66119303113	9085911.934572391
98626.5846131283	9025950.190685814
100462.04213468131	8968651.160786826
102331.6578330245	8921588.382241752
104236.06739764012	8873676.771585938
106175.9183482999	8824926.566427885
108151.87025522892	8775295.15441857
110164.59496336569	8724766.377361603
112214.77682079803	8673348.86557585
114303.11291144787	8620999.803612512
116430.31329208757	8567702.089853982
118597.10123376705	8513462.714822106
120804.21346773289	8458238.588707719
123052.40043592616	8402011.613465633
125342.42654613995	8344787.1039191745
127675.07043192645	8297493.82704538
130051.12521734099	8252793.821133291
132471.39878661174	8207309.477039071
134936.71405883064	8161001.997721702
137447.90926775365	8113856.280638595
140005.8382468096	8065879.422845902
142611.37071941298	8017032.4115978405
145265.39259467812	7967299.263479634
147968.80626863963	7916685.569100182
150722.53093107554	7865152.034062166
153527.5028780421	7812681.744565144
156384.6758302248	7759278.750641903
159295.0212572123	7708674.379398186
162259.5287078087	7667183.7344607115
165279.2061464897	7624963.531309285
168355.08029612005	7581978.510323941
171488.19698705408	7538214.63176231
174679.62151272458	7493677.734693072
177930.43899185772	7448332.338631277
181241.75473742394	7402163.585668291
184614.69463245457	7355175.935033682
188050.40551285836	7307333.624595368
191550.05555735278	7258620.93227265
195114.83468466165	7209040.905272882
198745.9549580986	7158557.436857889
202444.65099768018	7117486.455049124
206212.18039991445	7078503.2387281805
210049.82416539153	7038813.266832759
213958.88713434216	6998403.559990296
217940.6984302958	6957278.938136239
221996.61191199525	6915407.2002367675
226128.00663372796	6872774.611093777
230336.28731421314	6829384.730757669
234622.88481422624	6785205.08267169
238989.25662310526	6740221.133298807
243436.8873543108	6694435.152700359
247967.289250216	6647814.3309911415
252582.00269627848	6604053.438117338
257282.5967447932	6568249.561068284
262070.66964838552	6531796.143007236
266947.8494034318	6494681.251240855
271915.7943036019	6456908.889711266
276976.1935036891	6418449.897430027
282130.76759394706	6379291.647234691
287381.2691851069	6339436.996432554
292729.4835042813	6298856.519517023
298177.22900196735	6257536.85578455
303726.35797033116	6215479.687969859
309378.7571730137	6172655.273200276
315136.34848664823	6129049.475925565
321001.08955431683	6094162.742823021
326974.9744511768	6060854.372234051
333060.03436245886	6026941.290488037
339258.33827409917	5992426.8546216125
345571.9936762143	5957284.714750274
352003.14727966755	5921503.32456744
358553.9857459817	5885085.000895138
365226.7364308176	5848003.143980898
372023.6681413066	5810245.537047626
378947.09190746717	5771813.4309697
385999.3617679763	5732679.928011998
393182.87557057705	5692832.103165998
400500.07578736113	5655807.083074311
407953.4503452449	5625520.569107605
415545.53347188793	5594683.997402604
423278.90655735444	5563300.215745314
431156.19903182285	5531345.465245904
439180.0892596086	5498809.241306882
447353.3054498463	5465693.450950173
455678.6265841069	5431974.102548817
464158.8833612772	5397640.081715286
472796.9591600391	5362692.331170305
481595.7910192351	5327106.582917135
490558.37063650455	5290871.078430216
499687.7453854889	5253985.770444431
508987.01935196744	5224934.588681684
518459.3543892913	5197021.102098895
528107.971193433	5168612.017955609
537936.1503980698	5139685.956585863
547947.2336900292	5110233.405514528
558144.6249454955	5080255.964522901
568531.7913873753	5049732.039780265
579112.2647641759	5018651.566734158
589889.6425508494	4987015.275391924
600867.5891719693	4954801.318333856
612049.837247669	4921999.047830109
623440.1888627864	4888608.300779041
635042.5168595962	4857876.051462897
646860.7661546321	4832710.232215323
658898.9550799957	4807097.4534723135
671161.1767496273	4781018.511706037
683651.6004510239	4754464.828751356
696374.4730628222	4727437.7755690925
709334.1204987989	4699917.953604153
722534.9491787221	4671896.286905907
735981.4475265756	4643373.36401598
749678.1874966876	4614329.555846767
763629.8261282241	4584755.260618985
777841.1071286482	4554650.263371167
792316.8624866261	4523994.667619701
807062.014114949	4500211.978546662
822081.5755240541	4477201.874988819
837380.653526649	4453772.946906537
852964.4499741016	4429917.486944832
868838.2635251193	4405636.695686843
885007.4914473438	4380913.176143948
901477.6314524917	4355738.7737365635
918254.2835656282	4330113.986866157
935343.1520292377	4304021.210638026
952750.04724273	4277451.818052644
970480.8877380306	4250405.586371374
988541.7021919574	4222864.669689211
1006938.6314760271	4197760.060455356
1025677.9307444209	4177150.9933739523
1044765.9715608052	4156166.8022962236
1064209.2440647245	4134800.5840351526
1084014.359178331	4113053.4112857836
1104188.0508541602	4090909.704887285
1124737.1783647507	4068362.1610914175
1145668.7286348727	4045411.223698498
1166989.8186171474	4022041.1273168246
1188707.6977119034	3998244.14507057
1210829.7502320395	3974020.074888404
1233363.4979137748	3949352.935493957
1256316.6024741214	3924234.5530281286
1279696.8682159416	3905024.543425571
1303512.244681509	3886278.2825086876
1327770.8293554292	3867190.7540202364
1352480.870417874	3847762.9329373264
1377650.769549055	3827980.8851971384
1403289.084785873	3807838.086458348
1429404.533431761	3787334.9494059156
1456005.9950206485	3766457.37411635
1483102.5143361029	3745198.4582571015
1510703.3044866556	3723558.037071526
1538817.7500383463	3701521.818268691
1567455.410205595	3679082.5002144305
1596626.022101425	3658825.84006015
1626339.5040481905	3642114.663931576
1656605.9589499151	3625099.2977124015
1687435.6777273756	3607780.6396198105
1718839.1428171457	3590146.2397263646
1750827.0317357269	3572190.2827961133
1783410.2207100063	3553913.1650178786
1816599.7883753285	3535302.289456623
1850407.019542302	3516351.5039390516
1884843.4090337954	3497060.689146338
1919920.6655932867	3477417.0774837686
1955650.715865947	3457414.1608456653
1992045.7084538713	3437051.289749568
2029118.018046678	3421671.601761398
2066880.2496290822	3406530.139083796
2105345.242766708	3391118.858982074
2144526.0759716653	3375426.64687431
2184436.0711494284	3359448.3289791606
2225088.7981283693	3343184.293327459
2266498.079273693	3326623.2955659344
2308677.994187172	3309759.8621066925
2351642.884494346	3292593.9213141394
2395407.3587208795	3275114.0779892113
2439986.29725955	3257314.5418366925
2485394.8574297987	3239194.7685423982
2531648.478631358	3222980.8987187375
2578762.8875937983	3209526.2783830184
2626754.1037238385	3195831.9801626084
2675638.4445520453	3181888.0882594064
2725432.531281028	3167690.006407344
2776153.294436804	3153238.1185435452
2827817.979625338	3138522.3947021854
2880444.1533962977	3123537.9722372554
2934049.7092157872	3108284.825607645
2988652.8735503824	3092752.7919240114
3044272.212064306	3076936.727145042
3100926.6359319235	3060836.184721007
3158635.408267819	3044440.8493503747
3217418.1506763715	3032204.450456054
3277294.849923382	3020049.9509277777
3338285.8647317644	3007673.9629684445
3400411.9327037027	2995072.408255152
3463694.1773717343	2982245.667923285
3528154.115380883	2969184.8002282814
3593813.6638046256	2955885.4904451426
3660695.147596906	2942347.755221183
3728821.30718283	2928562.5359818027
3798215.306190736	2914525.268275424
3868900.7393279755	2900235.5940600885
3940901.6404034477	2885684.3206051355
4014242.490499326	2872779.047096994
4088948.226294856	2862001.257686157
4165044.248545185	2851027.1076099603
4242556.430717777	2839852.981610835
4321511.127789762	2828479.257624189
4401935.185208879	2816897.9675507722
4483855.948021182	2805105.2865332696
4567301.270168747	2793101.268264542
4652299.523960189	2780877.8421819126
4738879.609717651	2768430.962015589
4827070.965603188	2755760.3482022565
4916903.577628021	2742857.8123241547
5008407.989848212	2729719.0742114787
5101615.314749834	2720026.985108889
5196557.243827658	2710303.1384319575
5293266.058360566	2700402.1386587317
5391774.640387494	2690324.3591911485
5492116.483887789	2680062.7019754807
5594325.706169377	2669613.7790211565
5698437.059469136	2658977.675427931
5804485.942768984	2648147.2034430075
5912508.413831869	2637118.778915661
6022541.201461928	2625892.1906875293
6134621.717992506	2614460.1476417063
6248788.072006888	2602818.858404999
6365079.081295578	2592587.8489969033
6483534.286054714	2583976.976339305
6604193.962330305	2575209.264323541
6727099.135712337	2566285.0800574073
6852291.595284058	2557198.10218528
6979813.907830667	2547945.331535102
7109709.432312424	2538526.8789650104
7242022.334607315	2528936.3447176274
7376797.602527731	2519170.5559379146
7514081.061116962	2509229.3602180188
7653919.388230155	2499106.267272446
7796360.130405221	2488797.9207693855
7941451.71902934	2478303.8974135527
8089243.486805938	2470644.252601259
8239785.684528511	2462883.7801916883
8393129.498166373	2454984.8791912855
8549327.066268368	2446941.921067936
8708431.497690724	2438752.2521505514
8870496.889654404	2430416.0036979807
9035578.34613892	2421927.47874404
9203731.99661823	2413283.8699101554
9375015.015145289	2404485.074576927
9549485.639791965	2395525.3165871534
9727203.192450536	2386401.626188253
9908228.099003788	2377113.6601630477
10092621.909870485	2369019.0614606775
10280447.320933098	2362152.6930216686
10471768.194855202	2355163.9075942994
10666649.582795387	2348047.694274383
10865157.746525373	2340801.7060092674
11067360.180959744	2333426.089562922
11273325.63710487	2325915.774369159
11483124.145435112	2318268.277397859
11696827.039703846	2310483.5376893324
11914506.981197748	2302556.4154759306
12136237.983442418	2294484.284084037
12362095.43736769	2286266.868909264
12592156.13694151	2277929.263139137
12826498.3052806	2271855.791997543
13065201.621247198	2265674.0977315423
13308347.24654076	2259379.7197685936
13556017.853293689	2252970.5828925176
13808297.652180923	2246446.84502171
14065272.421052365	2239803.9936251612
14327029.534098294	2233039.8332305597
14593657.991557576	2226154.3372940486
14865248.449978571	2219142.9328682725
15141893.25304352	2212003.297445825
15423686.462966274	2204735.2148055704
15710723.89247449	2197334.042794936
16003103.137387017	2190939.3730665552
16300923.60979741	2185472.850633204
16604286.571875297	2179906.7069543805
16913295.17029647	2174239.107620419
17228054.471313924	2168470.217922688
17548671.49648152	2162596.0222712597
17875255.259042356	2156614.5799295655
18207916.800994623	2150525.892404091
18546769.230846975	2144325.891402019
18891927.762076642	2138012.5238667857
19243509.75230332	2131585.622928569
19601634.743191857	2125041.05980192
19966424.501097932	2118449.1421023123
20338003.0584698	2113615.9499230324
20716496.75602067	2108694.7017303896
21102034.285685964	2103683.776297307
21494746.734379806	2098583.3430634914
