# Frequency (Hz)	Imaginary Part (Ohm/m)
1000.0	1770965841.6505795
1018.6101701559753	1763621638.2325315
1037.566678745186	1756140757.939213
1056.875971184804	1748520657.1907198
1076.544612842316	1740758745.070691
1096.5792912678098	1732852382.4453733
1116.9868184678226	1724798881.0662837
1137.7741332214914	1716595502.656177
1158.9483034398106	1708239457.9780052
1180.5165285688056	1699727905.8865411
1202.4861420374123	1691057952.3623638
1224.8646137509306	1682226649.5278573
1247.6595526308697	1673230994.6449008
1270.8787092020582	1665861330.4398773
1294.529978227916	1660076233.282687
1318.6214013947485	1654183474.4830327
1343.1611700460153	1648181050.439429
1368.1576279674719	1642066920.2630253
1393.6192742241421	1635839005.0836828
1419.5547660501015	1629495187.3431358
1445.9729217920196	1623033310.0749989
1472.8827239075017	1616451176.1713748
1500.2933220192183	1609746547.6358147
1528.2140360258693	1602917144.8223755
1556.654359271062	1595960645.660514
1585.6239617711371	1588925004.6217756
1615.1326935030913	1583739096.1882432
1645.1905877536624	1578456677.11635
1675.8078645307671	1573075951.3266935
1706.994934038408	1567595089.3145282
1738.7624002162504	1562012227.527716
1771.1210643450886	1556325467.7330933
1804.0819287193829	1550532876.3710568
1837.6562003881704	1544632483.898129
1871.8552949655793	1538622284.1172924
1906.690840512252	1532500233.4958634
1942.1746814890264	1526264250.470666
1978.3188827841643	1519912214.7402797
2015.1357338155585	1514026667.7421384
2052.6377527092523	1508539363.8289406
2090.83769055575	1502949940.2562206
2129.748535745521	1497256496.5597382
2169.3835183851843	1491457096.9072912
2209.756114795903	1485549769.4405093
2250.880052095462	1479532505.6044037
2292.7693128656488	1473403259.464435
2335.438139906479	1467159947.0108733
2378.9010410788933	1460800445.4502141
2423.1727942376006	1454322592.4834034
2468.2684522556924	1447724185.5706356
2514.2033481427966	1441033137.3869689
2560.9931002584594	1434795849.4579508
2608.6536176225477	1428442484.5392625
2657.201105324507	1421970882.4183743
2706.652070033241	1415378842.6808345
2757.0233256095826	1408664123.9621043
2808.3319988231724	1401824443.185469
2860.595535175742	1394857474.7857678
2913.8317048327885	1387760849.9186769
2968.058608665602	1380532155.6552763
3023.2946844057765	1373168934.1616285
3079.5587129142264	1365668681.8630872
3136.8698245668766	1358028848.593058
3195.2475057592137	1350571738.3160005
3254.711605531848	1343230891.29704
3315.282342319423	1335753429.8659678
3376.9803108250912	1328136811.6053278
3439.8264890229248	1320378446.7828448
3503.8422452906757	1312475697.4708834
3569.0493456752297	1304425876.6495261
3635.4699612933177	1296226247.2929587
3703.126675869927	1287874021.4388487
3772.0424934169973	1279366359.2404137
3842.240846055061	1270700368.0008352
3913.745601980384	1261873101.1897185
3986.581073580439	1252956290.7287705
4060.7720257003652	1244803796.5307083
4136.343684063274	1236499583.0284247
4213.321743847289	1228040826.6998518
4291.732378422157	1219424651.4766967
4371.602248248502	1210648127.7665448
4452.958509942656	1201708271.4567688
4535.828825510186	1192602042.8998983
4620.241371751313	1183326345.8801048
4706.224849841282	1173878026.560458
4793.808495089107	1164253872.4105847
4883.02208687788	1154450611.1143742
4973.895958790063	1144464909.4573586
5066.461008921268	1135315091.7788098
5160.7487103859075	1126719014.8313184
5256.791122018419	1117962963.4291606
5354.620899273607	1109043960.4205139
5454.271305329837	1099958973.2482543
5555.7762223988775	1090704912.9188547
5659.170163246243	1081278632.9520915
5764.488282925873	1071676928.311209
5871.766390733255	1061896534.3131715
5981.040962380944	1051934125.5186379
6092.349152400711	1041786314.6012754
6205.7288067765	1031449651.1960303
6321.218475812449	1021167320.7762823
6438.857427240419	1012934524.106464
6558.685659571435	1004548513.6897607
6680.743915695614	996006438.1922733
6805.073696735207	987305393.2162925
6931.7172761554075	978442420.3127733
7060.717714137772	969414505.9754324
7192.118872221193	960218580.6161196
7325.9654282152305	950851517.5211285
7462.302891391108	941310131.7880783
7601.17761795533	931591179.2430115
7742.63682681127	921691355.3373437
7886.728615614156	911607294.0242765
8033.501977124734	903106485.3907663
8183.006815867389	895578226.0800977
8335.293965098195	887909864.5826786
8490.415204088747	880098793.5729754
8648.423275731726	872142357.2026811
8809.37190447399	864037850.1977006
8973.31581458352	855782516.9383272
9140.310748756232	847373550.522302
9310.413487069076	838808091.8104393
9483.681866285928	830083228.4544843
9660.174799522645	821195993.9068879
9839.952296278227	812143366.4121447
10023.075482838643	803278566.2328674
10209.606623060476	796766005.8509744
10399.609139541202	790132245.6122242
10593.147635183701	783375029.9666567
10790.287915161836	776492061.3881449
10991.097009294961	769480999.5932086
11195.643194838794	762339460.7452935
11403.996019700331	755065016.6442442
11616.226326085018	747655193.9006841
11832.40627458378	740107473.0950409
12052.609368708414	732419287.9209148
12276.910479883603	724588024.3125067
12505.385872903913	716611019.5558107
12738.113231864785	710101697.8760732
12975.171686575868	704398724.027399
13216.641839466038	698589616.8650059
13462.60579298911	692672401.2298656
13713.147177539457	686645065.2049063
13968.351179887397	680505559.4309355
14228.30457214352	674251796.4098374
14493.095741262152	667881649.7948016
14762.81471909391	661392953.6673406
15037.553212997384	654783501.800858
15317.404637020798	648051046.9105023
15602.46414366368	641193299.8890698
15892.828656229764	634527079.9457005
16188.596901781992	629562090.1479969
16489.86944471065	624504701.0453359
16796.74872092653	619353193.0709293
17109.339072690134	614105814.6565591
17427.746784089173	608760781.6370248
17752.08011717636	603316276.643507
18082.44934877952	597770448.4856454
18418.96680799711	592121411.5221102
18761.746914391195	586367245.0194662
19110.90621689136	580505992.4991022
19466.563433422634	574535661.0720063
19828.839491270715	568454220.7611655
20197.857568198782	563465962.4116462
20573.743134329117	559005120.709207
20956.623994804308	554461261.9836468
21346.630333242454	549832841.2740383
21743.8947560008	545118284.8674711
22148.552337263594	540315989.7639679
22560.74066496859	535424323.1314492
22980.599887588487	530441621.750553
23408.272761782944	525366191.4491214
23843.904700937204	520196306.5261659
24287.643824604504	514930209.16510737
24739.641008868115	509566108.8361017
25200.049937640895	504381623.9978711
25669.02715491952	500430239.59148836
26146.73211801092	496405319.2489516
26633.327251749808	492305494.4539759
27128.978003724646	488129371.2219561
27633.85290053167	483875529.62599605
28148.123605075813	479542523.3141182
28671.9649749377	475128879.0174898
29205.555121827452	470633096.0494932
29749.075472144435	466053645.79547733
30302.71082866393	461388971.1930145
30866.649433372746	456637486.20247644
31441.083031472648	451797575.2677715
32026.206936576502	447856764.2522215
32622.220097116733	444296399.5564578
33229.325163989684	440669775.86788934
33847.72855945983	436975660.0953842
34477.64054734464	433212796.1997772
35119.275304507275	429379904.7667992
35772.850993678774	425475682.5720636
36438.58983763541	421498802.13795817
37116.71819475767	417447911.28228325
37807.46663599349	413321632.6585013
38511.07002325569	409118563.28741986
39227.76758927724	404837274.0801646
39957.803018952654	400732853.4330174
40701.42453219439	397587738.98035336
41458.88496832911	394384093.41256565
42230.44187206672	391120827.4556418
43016.357581068	387796831.5639951
43816.89931514195	384410975.5432076
44632.33926710398	380962108.16574943
45462.95469532399	377449056.7795515
46309.02801799737	373870626.9092897
47170.84690917022	370225601.85025066
48048.70439655134	366512742.2546406
48942.898961145314	362730785.7101909
49853.73463873893	358878446.3109265
50781.5211232767	355773164.71458703
51726.57387216025	352943524.3419606
52689.21421350677	350061223.88051975
53669.76945540476	347125283.3170507
54668.57299720181	344134704.40012777
55685.96444286409	341088470.300696
56722.28971644549	337985545.2663386
57777.90117970507	334824874.26911086
58853.15775191451	331605382.6468177
59948.42503189409	328325975.7376178
61064.07542232036	324985538.50782716
62200.48825634718	321582935.17279434
63358.04992658254	318346344.09703547
64537.15401646702	315846774.693806
65738.20143409586	313300687.87866575
66961.60054853215	310707217.9546639
68207.76732865692	308065483.1140816
69477.1254846024	305374585.1386094
70770.10661181889	302633609.09394133
72087.15033782135	299841623.0186885
73428.70447166757	296997677.6075021
74795.2251562183	294100805.8882989
76187.17702322999	291150022.8934817
77605.0333513357	288144325.3250375
79049.2762269642	285082691.21340716
80520.3967082547	282637293.5507374
82018.89499202212	280388222.945772
83545.28058382872	278097296.75415576
85100.07247122246	275763736.0362987
86683.79930019774	273386747.35641307
88296.99955494083	270965522.51273584
89940.22174092053	268499238.2627318
91614.0245713852	265987056.04318228
93318.97715733238	263428121.68506423
95055.6592010119	260821565.12312362
96824.66119303113	258166500.10004413
98626.5846131283	255462023.8651096
100462.04213468131	252909720.34068373
102331.6578330245	250923059.6542653
104236.06739764012	248899426.87443054
106175.9183482999	246838133.94422987
108151.87025522892	244738480.00185657
110164.59496336569	242599751.14234728
112214.77682079803	240421220.17484504
114303.11291144787	238202146.3753475
116430.31329208757	235941775.23485267
118597.10123376705	233639338.20281732
120804.21346773289	231294052.42584258
123052.40043592616	228905120.481494
125342.42654613995	226471730.10717008
127675.07043192645	224546179.7358321
130051.12521734099	222758674.0033455
132471.39878661174	220937902.48502275
134936.71405883064	219083246.09892884
137447.90926775365	217194074.24190888
140005.8382468096	215269744.57517588
142611.37071941298	213309602.80590856
145265.39259467812	211312982.46478555
147968.80626863963	209279204.67937744
150722.53093107554	207207577.94332334
153527.5028780421	205097397.88121164
156384.6758302248	202947947.00908405
159295.0212572123	200935501.74624562
162259.5287078087	199356585.08294937
165279.2061464897	197748284.51188686
168355.08029612005	196110053.19353533
171488.19698705408	194441334.111594
174679.62151272458	192741559.8835954
177930.43899185772	191010152.56798705
181241.75473742394	189246523.46762574
184614.69463245457	187450072.92961505
188050.40551285836	185620190.14141476
191550.05555735278	183756252.92316082
195114.83468466165	181857627.51611507
198745.9549580986	179923668.36718157
202444.65099768018	178407646.7244196
206212.18039991445	176987033.79599226
210049.82416539153	175539983.01924124
213958.88713434216	174066002.38131055
217940.6984302958	172564590.7129012
221996.61191199525	171035237.51786894
226128.00663372796	169477422.79964817
230336.28731421314	167890616.88445005
234622.88481422624	166274280.24116552
238989.25662310526	164627863.29792
243436.8873543108	162950806.25521332
247967.289250216	161242538.89558026
252582.00269627848	159655914.46123075
257282.5967447932	158401093.48442638
262070.66964838552	157122920.07572824
266947.8494034318	155820959.64240566
271915.7943036019	154494769.50388232
276976.1935036891	153143898.74122202
282130.76759394706	151767888.0438099
287381.2691851069	150366269.5531823
292729.4835042813	148938566.7039507
298177.22900196735	147484294.06176242
303726.35797033116	146002957.15825
309378.7571730137	144494052.32290486
315136.34848664823	142957066.51182464
321001.08955431683	141763606.7924807
326974.9744511768	140634607.29145247
333060.03436245886	139484596.9176042
339258.33827409917	138313184.6550175
345571.9936762143	137119972.2109011
352003.14727966755	135904553.88016775
358553.9857459817	134666516.40748852
365226.7364308176	133405438.84678338
372023.6681413066	132120892.4180936
378947.09190746717	130812440.36179255
385999.3617679763	129479637.79008311
393182.87557057705	128122031.53572948
400500.07578736113	126871231.95129864
407953.4503452449	125874000.16032647
415545.53347188793	124858209.71603924
423278.90655735444	123823515.2387412
431156.19903182285	122769564.92116103
439180.0892596086	121696000.40883482
447353.3054498463	120602456.67826082
455678.6265841069	119488561.9127877
464158.8833612772	118353937.37619357
472796.9591600391	117198197.28390996
481595.7910192351	116020948.67185304
490558.37063650455	114821791.26280983
499687.7453854889	113600317.33034042
508987.01935196744	112660885.07263161
518459.3543892913	111763652.14800513
528107.971193433	110849721.56598192
537936.1503980698	109918782.58031653
547947.2336900292	108970518.66172294
558144.6249454955	108004607.39025177
568531.7913873753	107020720.34566273
579112.2647641759	106018522.99575973
589889.6425508494	104997674.58264518
600867.5891719693	103957828.006859
612049.837247669	102898629.70936157
623440.1888627864	101819719.55131854
635042.5168595962	100833739.55252773
646860.7661546321	100041228.64811297
658898.9550799957	99233968.98091649
671161.1767496273	98411686.07395361
683651.6004510239	97574100.34217562
696374.4730628222	96720926.99740912
709334.1204987989	95851875.95152396
722534.9491787221	94966651.71780056
735981.4475265756	94064953.31046158
749678.1874966876	93146474.14233245
763629.8261282241	92210901.9205998
777841.1071286482	91257918.54062751
792316.8624866261	90287199.97779801
807062.014114949	89547798.27462731
822081.5755240541	88834760.57334583
837380.653526649	88108453.11911596
852964.4499741016	87368628.95957734
868838.2635251193	86615036.54654412
885007.4914473438	85847419.65047616
901477.6314524917	85065517.27335778
918254.2835656282	84269063.55995587
935343.1520292377	83457787.70742619
952750.04724273	82631413.87323743
970480.8877380306	81789661.08138204
988541.7021919574	80932243.12684095
1006938.6314760271	80155071.00204921
1025677.9307444209	79525258.76144312
1044765.9715608052	78883725.607873
1064209.2440647245	78230253.41315427
1084014.359178331	77564619.98969966
1104188.0508541602	76886599.01497303
1124737.1783647507	76195959.95453742
1145668.7286348727	75492467.98367068
1166989.8186171474	74775883.90752281
1188707.6977119034	74045964.07978678
1210829.7502320395	73302460.31985636
1233363.4979137748	72545119.82844202
1256316.6024741214	71773685.10161637
1279696.8682159416	71191777.97487937
1303512.244681509	70625124.99471086
1327770.8293554292	70047926.50616205
1352480.870417874	69459986.25552759
1377650.769549055	68861104.33678718
1403289.084785873	68251077.12363574
1429404.533431761	67629697.2002478
1456005.9950206485	66996753.29075408
1483102.5143361029	66352030.1874055
1510703.3044866556	65695308.67740004
1538817.7500383463	65026365.46834836
1567455.410205595	64344973.11235155
1596626.022101425	63732430.832229674
1626339.5040481905	63231918.42999726
1656605.9589499151	62722091.40679407
1687435.6777273756	62202776.41593902
1718839.1428171457	61673796.88473959
1750827.0317357269	61134972.95445547
1783410.2207100063	60586121.41914475
1816599.7883753285	60027055.66337143
1850407.019542302	59457585.598754846
1884843.4090337954	58877517.599337004
1919920.6655932867	58286654.4357479
1955650.715865947	57684795.20814563
1992045.7084538713	57071735.27790762
2029118.018046678	56613819.672638945
2066880.2496290822	56163500.77086243
2105345.242766708	55704801.35769936
2144526.0759716653	55237565.47040697
2184436.0711494284	54761634.243749
2225088.7981283693	54276845.85598043
2266498.079273693	53783035.47382585
2308677.994187172	53280035.19643453
2351642.884494346	52767673.99829256
2395407.3587208795	52245777.67107174
2439986.29725955	51714168.76439762
2485394.8574297987	51172666.52551386
2531648.478631358	50689913.31603092
2578762.8875937983	50292156.82908234
2626754.1037238385	49886998.02623092
2675638.4445520453	49474299.14911828
2725432.531281028	49053919.8756794
2776153.294436804	48625717.27243173
2827817.979625338	48189545.74587648
2880444.1533962977	47745256.99299476
2934049.7092157872	47292699.95082357
2988652.8735503824	46831720.74509228
3044272.212064306	46362162.63790392
3100926.6359319235	45883865.97444278
3158635.408267819	45396668.128689475
3217418.1506763715	45036358.643539265
3277294.849923382	44678491.252945416
3338285.8647317644	44313963.88931929
3400411.9327037027	43942652.609429665
3463694.1773717343	43564431.163440384
3528154.115380883	43179170.95198463
3593813.6638046256	42786740.98243937
3660695.147596906	42387007.82438652
3728821.30718283	41979835.5642454
3798215.306190736	41565085.759060174
3868900.7393279755	41142617.389428355
3940901.6404034477	40712286.81155215
4014242.490499326	40331848.159951694
4088948.226294856	40015752.27710557
4165044.248545185	39693773.79609401
4242556.430717777	39365803.24076429
4321511.127789762	39031729.09759375
4401935.185208879	38691437.77777404
4483855.948021182	38344813.578589976
4567301.270168747	37991738.644078836
4652299.523960189	37632092.92495867
4738879.609717651	37265754.137809806
4827070.965603188	36892597.72349733
4916903.577628021	36512496.804819785
5008407.989848212	36125322.14336913
5101615.314749834	35841841.123322204
5196557.243827658	35557445.181856945
5293266.058360566	35267756.58352932
5391774.640387494	34972676.83109464
5492116.483887789	34672105.59425749
5594325.706169377	34365940.67555885
5698437.059469136	34054077.97562743
5804485.942768984	33736411.45778496
5912508.413831869	33412833.111992653
6022541.201461928	33083232.91812629
6134621.717992506	32747498.808568656
6248788.072006888	32405516.630105007
6365079.081295578	32105728.589817178
6483534.286054714	31854528.477544844
6604193.962330305	31598653.48843986
6727099.135712337	31338016.622249003
6852291.595284058	31072529.25962942
6979813.907830667	30802101.1320172
7109709.432312424	30526640.290935203
7242022.334607315	30246053.076729313
7376797.602527731	29960244.08672348
7514081.061116962	29669116.142781537
7653919.388230155	29372570.25826564
7796360.130405221	29070505.60437992
7941451.71902934	28762819.4758872
8089243.486805938	28539806.693649437
8239785.684528511	28313798.486767683
8393129.498166373	28083584.228699192
8549327.066268368	27849085.644115757
8708431.497690724	27610223.000971843
8870496.889654404	27366915.083395146
9035578.34613892	27119079.16407204
9203731.99661823	26866630.97611955
9375015.015145289	26609484.684433717
9549485.639791965	26347552.856504638
9727203.192450536	26080746.432688534
9908228.099003788	25808974.6959265
10092621.909870485	25572756.15225458
10280447.320933098	25373128.598662954
10471768.194855202	25169785.942331173
10666649.582795387	24962659.044565078
10865157.746525373	24751677.479987677
11067360.180959744	24536769.5125937
11273325.63710487	24317862.07135867
11483124.145435112	24094880.725393847
11696827.039703846	23867749.658639006
11914506.981197748	23636391.644084148
12136237.983442418	23400728.017511453
12362095.43736769	23160678.650748696
12592156.13694151	22917062.7327466
12826498.3052806	22740736.614073534
13065201.621247198	22561129.036329012
13308347.24654076	22378178.93100135
13556017.853293689	22191824.093083505
13808297.652180923	22002001.15992262
14065272.421052365	21808645.589676104
14327029.534098294	21611691.639366694
14593657.991557576	21411072.342529114
14865248.449978571	21206719.486440834
15141893.25304352	20998563.588928893
15423686.462966274	20786533.874745283
15710723.89247449	20570558.251502596
16003103.137387017	20384442.46576879
16300923.60979741	20225799.50337181
16604286.571875297	20064204.168450564
16913295.17029647	19899601.51685002
17228054.471313924	19731935.58189507
17548671.49648152	19561149.35536123
17875255.259042356	19387184.768091314
18207916.800994623	19209982.67025119
18546769.230846975	19029482.811218273
18891927.762076642	18845623.819095615
19243509.75230332	18658343.179844834
19601634.743191857	18467577.216030695
19966424.501097932	18275408.16878263
20338003.0584698	18135282.7663362
20716496.75602067	17992549.606307067
21102034.285685964	17847160.157882877
21494746.734379806	17699064.987084642
