# Frequency (Hz)	Real Part (Ohm/m)
1000.0	2590663125.132015
1018.6101701559753	2558556427.176845
1037.566678745186	2525852218.109581
1056.875971184804	2492539378.14676
1076.544612842316	2458606580.563851
1096.5792912678098	2424042287.8440576
1116.9868184678226	2388834747.7554274
1137.7741332214914	2352971989.354973
1158.9483034398106	2316441818.918425
1180.5165285688056	2279231815.7942243
1202.4861420374123	2241329328.1803794
1224.8646137509306	2202721468.822707
1247.6595526308697	2163395110.633028
1270.8787092020582	2131429164.717123
1294.529978227916	2106637155.0155094
1318.6214013947485	2081383761.7948418
1343.1611700460153	2055660398.6293218
1368.1576279674719	2029458319.298306
1393.6192742241421	2002768614.8125007
1419.5547660501015	1975582210.384801
1445.9729217920196	1947889862.3447735
1472.8827239075017	1919682154.9957032
1500.2933220192183	1890949497.4131548
1528.2140360258693	1861682120.1839635
1556.654359271062	1831870072.0845163
1585.6239617711371	1801813505.667258
1615.1326935030913	1783411057.712797
1645.1905877536624	1764666137.0706184
1675.8078645307671	1745572370.265728
1706.994934038408	1726123265.2116792
1738.7624002162504	1706312209.003194
1771.1210643450886	1686132465.6676984
1804.0819287193829	1665577173.8750265
1837.6562003881704	1644639344.6044874
1871.8552949655793	1623311858.7685254
1906.690840512252	1601587464.7921581
1942.1746814890264	1579458776.1473541
1978.3188827841643	1556918268.8415427
2015.1357338155585	1539110449.84466
2052.6377527092523	1525445542.259624
2090.83769055575	1511526328.4192648
2129.748535745521	1497348075.6408982
2169.3835183851843	1482905963.1658127
2209.756114795903	1468195080.520153
2250.880052095462	1453210425.8453143
2292.7693128656488	1437946904.197248
2335.438139906479	1422399325.814131
2378.9010410788933	1406562404.3517916
2423.1727942376006	1390430755.0862906
2468.2684522556924	1373998893.0830626
2514.2033481427966	1357612454.138196
2560.9931002584594	1347656184.1070597
2608.6536176225477	1337514626.1965256
2657.201105324507	1327184332.167629
2706.652070033241	1316661789.6090944
2757.0233256095826	1305943420.7430718
2808.3319988231724	1295025581.208657
2860.595535175742	1283904558.822772
2913.8317048327885	1272576572.317977
2968.058608665602	1261037770.0568035
3023.2946844057765	1249284228.7221532
3079.5587129142264	1237311951.9833295
3136.8698245668766	1225116869.137242
3195.2475057592137	1215433462.546323
3254.711605531848	1207719615.798532
3315.282342319423	1199862213.0502076
3376.9803108250912	1191858582.699752
3439.8264890229248	1183706003.4266098
3503.8422452906757	1175401703.2659838
3569.0493456752297	1166942858.6663425
3635.4699612933177	1158326593.529379
3703.126675869927	1149549978.2321072
3772.0424934169973	1140610028.6307602
3842.240846055061	1131503705.0461457
3913.745601980384	1122227911.2301264
3986.581073580439	1113012788.6723745
4060.7720257003652	1106530168.2542114
4136.343684063274	1099926905.1670098
4213.321743847289	1093200754.2301707
4291.732378422157	1086349428.4799023
4371.602248248502	1079370598.3916273
4452.958509942656	1072261891.0879197
4535.828825510186	1065020889.5317014
4620.241371751313	1057645131.704422
4706.224849841282	1050132109.7689478
4793.808495089107	1042479269.216869
4883.02208687788	1034684007.9999391
4973.895958790063	1026743675.6453521
5066.461008921268	1019831463.0102068
5160.7487103859075	1013623883.4483067
5256.791122018419	1007300779.7745028
5354.620899273607	1000860002.0654154
5454.271305329837	994299360.3872247
5555.7762223988775	987616624.051071
5659.170163246243	980809520.8545939
5764.488282925873	973875736.3093611
5871.766390733255	966812912.8539163
5981.040962380944	959618649.0521842
6092.349152400711	952290498.7769551
6205.7288067765	944825970.3781754
6321.218475812449	937378756.6641836
6438.857427240419	931212065.281976
6558.685659571435	924930610.7238462
6680.743915695614	918532257.2275625
6805.073696735207	912014829.2839954
6931.7172761554075	905376110.8974187
7060.717714137772	898613844.8320506
7192.118872221193	891725731.8445654
7325.9654282152305	884709429.9023299
7462.302891391108	877562553.387084
7601.17761795533	870282672.2838051
7742.63682681127	862867311.3544792
7886.728615614156	855313949.2964903
8033.501977124734	848630121.7750413
8183.006815867389	842466869.3592058
8335.293965098195	836188917.7671971
8490.415204088747	829794132.4278306
8648.423275731726	823280339.0451871
8809.37190447399	816645322.859332
8973.31581458352	809886827.8932705
9140.310748756232	803002556.1858921
9310.413487069076	795990167.0106395
9483.681866285928	788847276.0796353
9660.174799522645	781571454.733
9839.952296278227	774160229.1130793
10023.075482838643	766846223.5857351
10209.606623060476	761057376.316429
10399.609139541202	755160797.6144347
10593.147635183701	749154482.5794582
10790.287915161836	743036388.9996705
10991.097009294961	736804436.6573328
11195.643194838794	730456506.6214994
11403.996019700331	723990440.5275617
11616.226326085018	717404039.843376
11832.40627458378	710695065.1217422
12052.609368708414	703861235.2389666
12276.910479883603	696900226.619255
12505.385872903913	689809672.4446739
12738.113231864785	683866664.7121797
12975.171686575868	678547352.7429134
13216.641839466038	673129047.4727864
13462.60579298911	667609906.6196246
13713.147177539457	661988053.6160713
13968.351179887397	656261576.9715301
14228.30457214352	650428529.6222397
14493.095741262152	644486928.2692511
14762.81471909391	638434752.7040838
15037.553212997384	632269945.1218356
15317.404637020798	625990409.4215028
15602.46414366368	619594010.4932864
15892.828656229764	613365771.8258046
16188.596901781992	608664170.8214836
16489.86944471065	603875072.2224673
16796.74872092653	598996847.6836296
17109.339072690134	594027838.5560651
17427.746784089173	588966355.32313
17752.08011717636	583810677.0259879
18082.44934877952	578559050.6784668
18418.96680799711	573209690.6710229
18761.746914391195	567760778.1636149
19110.90621689136	562210460.4672791
19466.563433422634	556556850.4141939
19828.839491270715	550798025.716026
20197.857568198782	546073372.4539402
20573.743134329117	541847614.407221
20956.623994804308	537543214.2842143
21346.630333242454	533158708.5424986
21743.8947560008	528692606.4028803
22148.552337263594	524143389.3425097
22560.74066496859	519509510.5785691
22980.599887588487	514789394.54234946
23408.272761782944	509981436.34353924
23843.904700937204	505084001.22454697
24287.643824604504	500095424.00466233
24739.641008868115	495014008.51387936
25200.049937640895	490101972.2757834
25669.02715491952	486354371.9229779
26146.73211801092	482537028.0899305
26633.327251749808	478648642.838606
27128.978003724646	474687894.0761226
27633.85290053167	470653435.1052243
28148.123605075813	466543894.1663898
28671.9649749377	462357873.9714212
29205.555121827452	458093951.22834766
29749.075472144435	453750676.1574933
30302.71082866393	449326571.998537
30866.649433372746	444820134.5083938
31441.083031472648	440229831.4497623
32026.206936576502	436480825.36964566
32622.220097116733	433087186.8331489
33229.325163989684	429630392.1060409
33847.72855945983	426109265.8408664
34477.64054734464	422522610.8167566
35119.275304507275	418869207.53235745
35772.850993678774	415147813.79118675
36438.58983763541	411357164.2792764
37116.71819475767	407495970.1349468
37807.46663599349	403562918.5105864
38511.07002325569	399556672.12626445
39227.76758927724	395475868.81504303
39957.803018952654	391560293.01518387
40701.42453219439	388545479.27367735
41458.88496832911	385474559.33545315
42230.44187206672	382346489.0546433
43016.357581068	379160204.8536473
43816.89931514195	375914623.3615058
44632.33926710398	372608641.0455405
45462.95469532399	369241133.8361425
46309.02801799737	365810956.744576
47170.84690917022	362316943.47367007
48048.70439655134	358757906.0212657
48942.898961145314	355132634.2762805
49853.73463873893	351439895.6072596
50781.5211232767	348454274.84049904
51726.57387216025	345729047.33577573
52689.21421350677	342953102.8834762
53669.76945540476	340125497.6325757
54668.57299720181	337245270.166822
55685.96444286409	334311441.17784274
56722.28971644549	331323013.1321698
57777.90117970507	328278969.9320682
58853.15775191451	325178276.5700507
59948.42503189409	322019878.77696455
61064.07542232036	318802702.66352874
62200.48825634718	315525654.3551998
63358.04992658254	312406321.70846766
64537.15401646702	309989227.9622249
65738.20143409586	307527151.6900817
66961.60054853215	305019255.759577
68207.76732865692	302464687.45907176
69477.1254846024	299862578.20781934
70770.10661181889	297212043.2606367
72087.15033782135	294512181.4070827
73428.70447166757	291762074.66503626
74795.2251562183	288960787.96857303
76187.17702322999	286107368.8500333
77605.0333513357	283200847.1161712
79049.2762269642	280240234.51827985
80520.3967082547	277869784.44256485
82018.89499202212	275687014.40979606
83545.28058382872	273463622.6553063
85100.07247122246	271198853.2019421
86683.79930019774	268891936.0036867
88296.99955494083	266542086.68383607
89940.22174092053	264148506.2683018
91614.0245713852	261710380.91395274
93318.97715733238	259226881.63189763
95055.6592010119	256697164.00562125
96824.66119303113	254120367.90387326
98626.5846131283	251495617.18821424
100462.04213468131	249017004.88619205
102331.6578330245	247082643.76055312
104236.06739764012	245112283.84522292
106175.9183482999	243105255.1965999
108151.87025522892	241060875.40331793
110164.59496336569	238978449.35421968
112214.77682079803	236857269.00201052
114303.11291144787	234696613.1225152
116430.31329208757	232495747.06945398
118597.10123376705	230253922.5246546
120804.21346773289	227970377.24361685
123052.40043592616	225644334.7963401
125342.42654613995	223275004.3033295
127675.07043192645	221396362.83185384
130051.12521734099	219650872.66907212
132471.39878661174	217872898.63735566
134936.71405883064	216061836.206376
137447.90926775365	214217069.59539276
140005.8382468096	212337971.56388104
142611.37071941298	210423903.19826293
145265.39259467812	208474213.69467068
147968.80626863963	206488240.13766524
150722.53093107554	204465307.27483875
153527.5028780421	202404727.2872209
156384.6758302248	200305799.5554132
159295.0212572123	198339574.83840597
162259.5287078087	196793788.75847733
165279.2061464897	195219235.33657625
168355.08029612005	193615379.2075743
171488.19698705408	191981675.04310554
174679.62151272458	190317567.3661517
177930.43899185772	188622490.3621719
181241.75473742394	186895867.6867203
184614.69463245457	185137112.26948383
188050.40551285836	183345626.1146694
191550.05555735278	181520800.09768206
195114.83468466165	179662013.75801346
198745.9549580986	177768635.08827984
202444.65099768018	176281943.30551273
206212.18039991445	174887936.42551732
210049.82416539153	173467986.84028682
213958.88713434216	172021611.75166222
217940.6984302958	170548319.3765288
221996.61191199525	169047608.779605
226128.00663372796	167518969.70311716
230336.28731421314	165961882.39330903
234622.88481422624	164375817.4237177
238989.25662310526	162760235.5151636
243436.8873543108	161114587.35239077
247967.289250216	159438313.3972915
252582.00269627848	157880654.7603257
257282.5967447932	156646806.60295537
262070.66964838552	155389996.32142958
266947.8494034318	154109796.5867111
271915.7943036019	152805772.1170956
276976.1935036891	151477479.53021312
282130.76759394706	150124467.19227186
287381.2691851069	148746275.06449822
292729.4835042813	147342434.54671934
298177.22900196735	145912468.31803253
303726.35797033116	144455890.17451265
309378.7571730137	142972204.8638964
315136.34848664823	141460907.9171915
321001.08955431683	140285771.6615698
326974.9744511768	139173609.84573886
333060.03436245886	138040750.5092745
339258.33827409917	136886808.46779573
345571.9936762143	135711391.36857477
352003.14727966755	134514099.55713332
358553.9857459817	133294525.94135435
365226.7364308176	132052255.85306811
372023.6681413066	130786866.9070592
378947.09190746717	129497928.85745141
385999.3617679763	128185003.45142023
393182.87557057705	126847644.28018038
400500.07578736113	125614984.16434252
407953.4503452449	124631021.65963039
415545.53347188793	123628747.44527833
423278.90655735444	122607820.73725447
431156.19903182285	121567894.40947726
439180.0892596086	120508614.87579058
447353.3054498463	119429621.96973923
455678.6265841069	118330548.82210907
464158.8833612772	117211021.73618786
472796.9591600391	116070660.0607032
481595.7910192351	114909076.06039856
490558.37063650455	113725874.78419779
499687.7453854889	112520653.93091804
508987.01935196744	111592661.23990105
518459.3543892913	110706078.93556407
528107.971193433	109802997.1836862
537936.1503980698	108883108.92674114
547947.2336900292	107946101.39280972
558144.6249454955	106991655.98923463
568531.7913873753	106019448.1942942
579112.2647641759	105029147.44686307
589889.6425508494	104020417.03401664
600867.5891719693	102992913.97654556
612049.837247669	101946288.91233936
623440.1888627864	100880185.97759853
635042.5168595962	99905558.96509193
646860.7661546321	99121439.83473425
658898.9550799957	98322728.11393796
671161.1767496273	97509152.23211227
683651.6004510239	96680435.56469081
696374.4730628222	95836296.33907765
709334.1204987989	94976447.53884049
722534.9491787221	94100596.8061224
735981.4475265756	93208446.3422374
749678.1874966876	92299692.80641456
763629.8261282241	91374027.21266031
777841.1071286482	90431134.82469878
792316.8624866261	89470695.04895838
807062.014114949	88738431.14916568
822081.5755240541	88032127.94000947
837380.653526649	87312680.30794924
852964.4499741016	86579843.63303806
868838.2635251193	85833368.74291016
885007.4914473438	85073001.8280599
901477.6314524917	84298484.35554329
918254.2835656282	83509552.98107436
935343.1520292377	82705939.45948517
952750.04724273	81887370.55351952
970480.8877380306	81053567.94092952
988541.7021919574	80204248.11984271
1006938.6314760271	79434178.12563998
1025677.9307444209	78809671.29471925
1044765.9715608052	78173542.28541145
1064209.2440647245	77525574.80699936
1084014.359178331	76865548.54355846
1104188.0508541602	76193239.07904755
1124737.1783647507	75508417.8210046
1145668.7286348727	74810851.92282295
1166989.8186171474	74100304.20458123
1188707.6977119034	73376533.0723991
1210829.7502320395	72639292.43629307
1233363.4979137748	71888331.6265032
1256316.6024741214	71123395.30826257
1279696.8682159416	70545939.73922989
1303512.244681509	69983543.8291663
1327770.8293554292	69410681.63552138
1352480.870417874	68827158.37897684
1377650.769549055	68232775.65533794
1403289.084785873	67627331.36807443
1429404.533431761	67010619.659605
1456005.9950206485	66382430.841303736
1483102.5143361029	65742551.32220383
1510703.3044866556	65090763.53637406
1538817.7500383463	64426845.868944496
1567455.410205595	63750572.58075451
1596626.022101425	63142471.46447557
1626339.5040481905	62645312.376083195
1656605.9589499151	62138901.07246117
1687435.6777273756	61623065.3683099
1718839.1428171457	61097629.87393184
1750827.0317357269	60562415.93559737
1783410.2207100063	60017241.57480075
1816599.7883753285	59461921.42638492
1850407.019542302	58896266.675516084
1884843.4090337954	58320084.99348405
1919920.6655932867	57733180.47230857
1955650.715865947	57135353.55812884
1992045.7084538713	56526400.983352266
2029118.018046678	56071260.4974297
2066880.2496290822	55623632.03274876
2105345.242766708	55167673.126173384
2144526.0759716653	54703228.7467626
2184436.0711494284	54230140.97842291
2225088.7981283693	53748248.96621575
2266498.079273693	53257388.86166462
2308677.994187172	52757393.767044954
2351642.884494346	52248093.67863738
2395407.3587208795	51729315.42892396
2439986.29725955	51200882.627710216
2485394.8574297987	50662615.60214989
2531648.478631358	50182638.67929577
2578762.8875937983	49787001.280822776
2626754.1037238385	49384001.00304404
2675638.4445520453	48973500.82152298
2725432.531281028	48555361.16177476
2776153.294436804	48129439.851809606
2827817.979625338	47695592.07379306
2880444.1533962977	47253670.314805724
2934049.7092157872	46803524.316688046
2988652.8735503824	46345001.024950385
3044272.212064306	45877944.53673295
3100926.6359319235	45402196.047797434
3158635.408267819	44917593.79853128
3217418.1506763715	44559013.700931296
3277294.849923382	44202846.35059487
3338285.8647317644	43840050.665264644
3400411.9327037027	43470503.29049864
3463694.1773717343	43094078.576207474
3528154.115380883	42710648.533932485
3593813.6638046256	42320082.79332782
3660695.147596906	41922248.55783338
3728821.30718283	41517010.55952261
3798215.306190736	41104231.013109505
3868900.7393279755	40683769.569100805
3940901.6404034477	40255483.26607507
4014242.490499326	39876779.646759175
4088948.226294856	39562022.6915575
4165044.248545185	39241408.055861674
4242556.430717777	38914826.727241084
4321511.127789762	38582167.664525114
4401935.185208879	38243317.760048024
4483855.948021182	37898161.80119136
4567301.270168747	37546582.431209944
4652299.523960189	37188460.10932989
4738879.609717651	36823673.07010298
4827070.965603188	36452097.28200534
4916903.577628021	36073606.405265436
5008407.989848212	35688071.74890683
5101615.314749834	35405668.09335026
5196557.243827658	35122346.24235702
5293266.058360566	34833751.72350787
5391774.640387494	34539786.41155692
5492116.483887789	34240350.35513054
5594325.706169377	33935341.74274326
5698437.059469136	33624656.86818041
5804485.942768984	33308190.09523704
5912508.413831869	32985833.821800534
6022541.201461928	32657478.44326447
6134621.717992506	32323012.315262247
6248788.072006888	31982321.715706494
6365079.081295578	31683617.702470765
6483534.286054714	31433263.454150394
6604193.962330305	31178250.070669457
6727099.135712337	30918490.84472991
6852291.595284058	30653897.455396052
6979813.907830667	30384379.93806452
7109709.432312424	30109846.653875478
7242022.334607315	29830204.258554146
7376797.602527731	29545357.670673084
7514081.061116962	29255210.039323214
7653919.388230155	28959662.711183537
7796360.130405221	28658615.1969781
7941451.71902934	28351965.1373082
8089243.486805938	28129623.30493997
8239785.684528511	27904293.623583637
8393129.498166373	27674770.51851605
8549327.066268368	27440975.949408475
8708431.497690724	27202830.423588216
8870496.889654404	26960252.96901058
9035578.34613892	26713161.106727254
9203731.99661823	26461470.822842654
9375015.015145289	26205096.53994838
9549485.639791965	25943951.088025827
9727203.192450536	25677945.674807537
9908228.099003788	25406989.85558684
10092621.909870485	25171448.432781704
10280447.320933098	24972355.19415078
10471768.194855202	24769556.796472028
10666649.582795387	24562984.286105115
10865157.746525373	24352567.426170725
11067360.180959744	24138234.67266925
11273325.63710487	23919913.15015514
11483124.145435112	23697528.626958318
11696827.039703846	23471005.489944756
11914506.981197748	23240266.718807105
12136237.983442418	23005233.85987698
12362095.43736769	22765826.999449946
12592156.13694151	22522862.499250825
12826498.3052806	22346957.08186159
13065201.621247198	22167778.034723382
13308347.24654076	21985264.435029525
13556017.853293689	21799354.22618961
13808297.652180923	21609984.19672945
14065272.421052365	21417089.958798595
14327029.534098294	21220605.926277738
14593657.991557576	21020465.292478718
14865248.449978571	20816600.00742959
15141893.25304352	20608940.754736803
15423686.462966274	20397416.92801694
15710723.89247449	20181956.606889777
16003103.137387017	19996263.604216456
16300923.60979741	19837958.05310503
16604286.571875297	19676706.408750787
16913295.17029647	19512453.843857184
17228054.471313924	19345144.510782354
17548671.49648152	19174721.5225503
17875255.259042356	19001126.933508772
18207916.800994623	18824301.71962703
18546769.230846975	18644185.75842708
18891927.762076642	18460717.808541395
19243509.75230332	18273835.488890145
19601634.743191857	18083475.257471062
19966424.501097932	17891713.723304898
20338003.0584698	17751853.94645461
20716496.75602067	17609391.355359163
21102034.285685964	17464277.511202555
21494746.734379806	17316463.073714223
21894767.628566206	17165897.78439272
