# Frequency (Hz)	Real Part (Ohm/m)
1000.0	1145571.50262206
1018.6101701559753	1160348.9803342952
1037.566678745186	1175401.4694212324
1056.875971184804	1190734.0878913472
1076.5446128423157	1206352.0490001286
1096.5792912678098	1222260.663022633
1116.9868184678226	1238465.339059042
1137.7741332214914	1254971.586873812
1158.9483034398106	1271785.0187690502
1180.5165285688054	1288911.3514927658
1202.4861420374123	1306356.4081826168
1224.8646137509306	1324126.1203458465
1247.6595526308697	1342226.5298760578
1270.8787092020582	1359842.8050684517
1294.529978227916	1376998.7515267155
1318.6214013947485	1394473.9730677535
1343.1611700460153	1412274.4114551835
1368.1576279674719	1430406.1190298556
1393.619274224142	1448875.2607677095
1419.5547660501015	1467688.116375941
1445.9729217920194	1486851.0824281604
1472.882723907502	1506370.6745393048
1500.2933220192183	1526253.529581014
1528.2140360258693	1546506.4079382345
1556.654359271062	1567136.1958078328
1585.6239617711371	1588100.8080009478
1615.132693503091	1607522.937836817
1645.1905877536624	1627306.5168137222
1675.807864530767	1647458.2715616818
1706.9949340384078	1667985.0538944434
1738.7624002162504	1688893.8431391714
1771.1210643450886	1710191.7485095002
1804.0819287193826	1731886.0115227355
1837.6562003881704	1753984.0084620558
1871.8552949655793	1776493.2528845242
1906.690840512252	1799421.398175776
1942.1746814890264	1822776.24015226
1978.3188827841643	1846565.7197118911
2015.1357338155585	1869497.819317307
2052.6377527092523	1891727.6333880338
2090.8376905557498	1914371.148081152
2129.748535745521	1937436.0624356403
2169.3835183851843	1960930.2187708968
2209.756114795903	1984861.6053532248
2250.880052095462	2009238.3591119172
2292.7693128656488	2034068.768405909
2335.438139906479	2059361.275841906
2378.9010410788933	2085124.481144957
2423.1727942376006	2111367.1440824624
2468.2684522556924	2138098.1874425793
2514.2033481427966	2165179.936626854
2560.9931002584594	2189951.3147670417
2608.6536176225477	2215183.692469415
2657.2011053245064	2240885.6490142704
2706.652070033241	2267065.923343766
2757.0233256095826	2293733.4170332635
2808.3319988231724	2320897.197317957
2860.5955351757416	2348566.5001758267
2913.831704832789	2376750.733467981
2968.0586086656026	2405459.480137416
3023.2946844057765	2434702.5014673336
3079.5587129142264	2464489.740400078
3136.8698245668766	2494831.3249178356
3195.2475057592133	2523728.500870691
3254.711605531848	2551586.377320838
3315.282342319423	2579962.6935919067
3376.9803108250912	2608867.0979371807
3439.8264890229243	2638309.418165576
3503.8422452906757	2668299.6649832106
3569.0493456752292	2698848.035397139
3635.4699612933177	2729964.9161824584
3703.126675869927	2761660.887413918
3772.0424934169973	2793946.7260632515
3842.240846055061	2826833.40966348
3913.745601980384	2860332.120041372
3986.581073580439	2894133.7304625907
4060.7720257003657	2924574.6904974836
4136.343684063274	2955582.161978336
4213.321743847289	2987166.6877795546
4291.732378422157	3019339.0069802282
4371.602248248501	3052110.058515539
4452.958509942655	3085490.984896114
4535.828825510186	3119493.1359965936
4620.241371751313	3154128.072914724
4706.224849841281	3189407.5719022406
4793.808495089106	3225343.6283689328
4883.02208687788	3261948.460961207
4973.895958790063	3299234.515716552
5066.461008921268	3334209.061863085
5160.7487103859075	3367704.7699076547
5256.791122018419	3401823.8387784287
5354.620899273607	3436577.8693264537
5454.271305329836	3471978.6782965832
5555.7762223988775	3508038.302345304
5659.170163246242	3544769.002133332
5764.488282925873	3582183.266494363
5871.766390733255	3620293.816681416
5981.040962380945	3659113.6106921877
6092.349152400711	3698655.847674918
6205.7288067765	3738933.9724162444
6321.218475812449	3779361.0501276306
6438.8574272404185	3815084.6869095876
6558.685659571435	3851473.1466506473
6680.743915695614	3888538.8018191997
6805.073696735206	3926294.255137382
6931.717276155407	3964752.3438661336
7060.717714137772	4003926.1441699993
7192.118872221193	4043828.9755631774
7325.96542821523	4084474.405438286
7462.302891391108	4125876.2536794334
7601.17761795533	4168048.5973611223
7742.636826811269	4211005.775534602
7886.728615614156	4254762.394103313
8033.501977124735	4295023.784024556
8183.00681586739	4333282.7529810555
8335.293965098195	4372253.7278598305
8490.415204088747	4411949.959212242
8648.423275731726	4452384.944184673
8809.37190447399	4493572.431107695
8973.31581458352	4535526.424170651
9140.310748756232	4578261.188183233
9310.413487069076	4621791.253425663
9483.681866285926	4666131.420589156
9660.174799522645	4711296.765808306
9839.952296278227	4757302.645787138
10023.075482838643	4803157.1005722955
10209.606623060476	4842746.293546403
10399.609139541202	4883072.2481380915
10593.1476351837	4924148.675606433
10790.287915161836	4965989.5423793625
10991.097009294961	5008609.074802408
11195.643194838794	5052021.76397582
11403.99601970033	5096242.370681671
11616.22632608502	5141285.930402719
11832.40627458378	5187167.758434608
12052.609368708414	5233903.455093237
12276.910479883603	5281508.911019046
12505.385872903913	5330000.312579982
12738.113231864783	5373538.6060561435
12975.171686575868	5414526.707673054
13216.641839466038	5456277.6048354255
13462.60579298911	5498805.493298158
13713.147177539455	5542124.833001552
13968.351179887397	5586250.35298787
14228.30457214352	5631197.056409355
14493.09574126215	5676980.225629463
14762.81471909391	5723615.427419043
15037.553212997384	5771118.51824918
15317.404637020798	5819505.649682601
15602.46414366368	5868793.273865357
15892.828656229764	5917467.821220007
16188.596901781993	5958295.950661105
16489.86944471065	5999883.898538248
16796.74872092653	6042245.805201821
17109.339072690134	6085396.074156537
17427.746784089173	6129349.376958775
17752.08011717636	6174120.658205085
18082.44934877952	6219725.140613485
18418.96680799711	6266178.33019938
18761.746914391195	6313496.021547757
19110.90621689136	6361694.303183515
19466.56343342263	6410789.563041745
19828.83949127071	6460798.494039784
20197.857568198782	6504297.297945396
20573.743134329114	6544779.9355362905
20956.623994804308	6586015.961901115
21346.630333242454	6628019.39773315
21743.8947560008	6670804.524653149
22148.55233726359	6714385.890065274
22560.74066496859	6758778.31210335
22980.599887588487	6803996.884669188
23408.272761782944	6850056.982564694
23843.904700937208	6896974.26671943
24287.643824604504	6944764.689515542
24739.64100886812	6993444.500211716
25200.049937640895	7040928.924358904
25669.027154919517	7079298.946658296
26146.732118010917	7118383.041601564
26633.327251749808	7158194.498202119
27128.978003724646	7198746.852784168
27633.852900531667	7240053.8935852125
28148.123605075813	7282129.665444209
28671.964974937695	7324988.474576942
29205.55512182745	7368644.893440318
29749.075472144435	7413113.765687145
30302.71082866393	7458410.211213122
30866.649433372742	7504549.631297807
31441.08303147265	7551547.713841161
32026.206936576502	7590708.039036809
32622.220097116733	7626600.304211807
33229.325163989684	7663160.530548989
33847.72855945983	7700401.148919254
34477.640547344636	7738334.821534099
35119.275304507275	7776974.446250948
35772.850993678774	7816333.160958545
36438.58983763541	7856424.348043962
37116.71819475767	7897261.638942801
37807.466635993485	7938858.918773973
38511.070023255685	7981230.331060831
39227.76758927723	8024390.282540099
39957.803018952654	8065767.334148161
40701.42453219439	8097474.059042944
41458.88496832911	8129770.851483105
42230.441872066716	8162668.692726068
43016.35758106799	8196178.768392332
43816.89931514194	8230312.47226868
44632.33926710397	8265081.410182222
45462.95469532399	8300497.403946477
46309.02801799736	8336572.495380927
47170.84690917023	8373318.9504053695
48048.704396551344	8410749.26321044
48942.89896114532	8448876.160505807
49853.73463873894	8487712.605847359
50781.5211232767	8518039.612066893
51726.57387216024	8545171.256315518
52689.21421350677	8572807.825080216
53669.76945540476	8600958.715092154
54668.57299720181	8629633.497957258
55685.96444286408	8658841.923410663
56722.28971644549	8688593.92263175
57777.90117970507	8718899.61162082
58853.1577519145	8749769.294638667
59948.42503189408	8781213.46771014
61064.07542232036	8813242.822192885
62200.48825634718	8845868.248412546
63358.04992658254	8876294.029489087
64537.15401646702	8897528.51918276
65738.20143409586	8919158.18634281
66961.60054853215	8941190.385289125
68207.76732865692	8963632.607206741
69477.1254846024	8986492.482692923
70770.10661181889	9009777.784351647
72087.15033782135	9033496.42943637
73428.70447166759	9057656.482541993
74795.22515621828	9082266.15834689
76187.17702322999	9107333.824405996
77605.0333513357	9132868.003995877
79049.2762269642	9158877.379012715
80520.39670825469	9176743.432495961
82018.8949920221	9191842.799498431
83545.28058382872	9207223.168290064
85100.07247122246	9222889.768361967
86683.79930019773	9238847.926526977
88296.99955494082	9255103.068730813
89940.22174092053	9271660.721896973
91614.0245713852	9288526.515805935
93318.9771573324	9305706.185009362
95055.65920101192	9323205.570779888
96824.66119303115	9341030.623097228
98626.5846131283	9359187.402671233
100462.04213468132	9375077.771985183
102331.65783302448	9383378.5099911
104236.06739764012	9391833.726143727
106175.9183482999	9400446.29530766
108151.87025522892	9409219.145849215
110164.59496336569	9418155.2606321
112214.77682079801	9427257.678031627
114303.11291144785	9436529.49296779
116430.31329208757	9445973.857957572
118597.10123376705	9455593.984186826
120804.21346773289	9465393.14260213
123052.40043592616	9475374.665022928
125342.42654613995	9485541.945274394
127675.07043192645	9489131.781799229
130051.12521734099	9490661.273342717
132471.39878661174	9492219.228984082
134936.71405883064	9493806.178445028
137447.90926775365	9495422.661305469
140005.8382468096	9497069.227187
142611.37071941295	9498746.435939757
145265.39259467812	9500454.857832791
147968.80626863963	9502195.073747953
150722.53093107554	9503967.675377404
153527.5028780421	9505773.265424795
156384.67583022476	9507612.457810204
159295.0212572123	9507572.253568573
162259.5287078087	9502439.533422716
165279.2061464897	9497211.29248158
168355.08029612005	9491885.753086917
171488.19698705408	9486461.104497945
174679.62151272455	9480935.502275694
177930.43899185772	9475307.067655874
181241.75473742394	9469573.886910068
184614.69463245454	9463734.010695048
188050.40551285836	9457785.453389974
191550.0555573528	9451726.192421272
195114.83468466165	9445554.167574923
198745.9549580986	9439267.280295977
202444.65099768018	9429003.335038153
206212.18039991445	9417497.134963658
210049.8241653915	9405776.802547926
213958.88713434213	9393838.352751656
217940.6984302958	9381677.726373276
221996.61191199525	9369290.788668795
226128.00663372793	9356673.327945916
230336.2873142131	9343821.054132052
234622.88481422624	9330729.59731562
238989.25662310526	9317394.506260244
243436.8873543108	9303811.246891284
247967.289250216	9289975.200754194
252582.00269627848	9275073.687019574
257282.59674479323	9257992.102959791
262070.66964838552	9240592.627714122
266947.8494034318	9222869.34527351
271915.7943036019	9204816.229530951
276976.1935036891	9186427.14223258
282130.76759394706	9167695.830890574
287381.2691851069	9148615.926657245
292729.4835042813	9129180.94215958
298177.22900196735	9109384.26929343
303726.3579703311	9089219.17697672
309378.75717301364	9068678.808860786
315136.34848664823	9047756.180999145
321001.08955431683	9026033.914006695
326974.97445117676	9003811.83921797
333060.03436245886	8981176.20783621
339258.33827409917	8958119.323502848
345571.9936762143	8934633.346628774
352003.1472796675	8910710.291728796
358553.9857459817	8886342.024706477
365226.7364308175	8861520.260088466
372023.6681413066	8836236.558207344
378947.09190746717	8810482.32233204
385999.36176797637	8784248.795744862
393182.87557057705	8757527.0587641
400500.07578736113	8730827.203193376
407953.45034524484	8704718.743502375
415545.53347188793	8678124.40093401
423278.90655735444	8651035.13312527
431156.19903182285	8623441.729433201
439180.0892596086	8595334.807803243
447353.3054498463	8566704.81157919
455678.6265841068	8537542.00625384
464158.8833612772	8507836.476159167
472796.9591600391	8477578.12109485
481595.79101923504	8446756.652894152
490558.37063650455	8415361.591925781
499687.7453854889	8383382.263530728
508987.0193519675	8353774.029914295
518459.3543892913	8324195.645630415
528107.971193433	8294066.802582076
537936.1503980698	8263377.256638005
547947.2336900292	8232116.573021903
558144.6249454955	8200274.1227645185
568531.7913873753	8167839.079089654
579112.2647641759	8134800.413732987
589889.6425508494	8101146.893192307
600867.5891719692	8066867.074908013
612049.837247669	8031949.303372541
623440.1888627863	7996381.706167318
635042.5168595961	7961978.84631349
646860.7661546321	7930359.539879719
658898.9550799957	7898151.792772998
671161.1767496272	7865344.654012288
683651.6004510238	7831926.968816904
696374.4730628222	7797887.3748138165
709334.1204987989	7763214.298174293
722534.9491787221	7727895.949678673
735981.4475265755	7691920.320707928
749678.1874966878	7655275.179160562
763629.8261282243	7617948.065293615
777841.1071286482	7579926.287486171
792316.8624866261	7541196.917924094
807062.0141149492	7507498.317117893
822081.575524054	7474097.973264728
837380.6535266489	7440076.04332919
852964.4499741016	7405420.959488517
868838.2635251193	7370120.938640795
885007.4914473438	7334163.978398591
901477.6314524917	7297537.85300799
918254.2835656281	7260230.109191715
935343.1520292377	7222228.061914883
952750.0472427299	7183518.79007195
970480.8877380306	7144089.132093409
988541.7021919573	7103925.681470698
1006938.6314760271	7065925.8746619765
1025677.9307444209	7032115.661589598
1044765.9715608053	6997676.234698929
1064209.2440647245	6962595.884213754
1084014.359178331	6926862.682436918
1104188.0508541602	6890464.479694797
1124737.1783647507	6853388.900206275
1145668.7286348727	6815623.337874835
1166989.8186171474	6777154.952002376
1188707.6977119034	6737970.662923203
1210829.7502320393	6698057.1475568265
1233363.4979137746	6657400.834877959
1256316.6024741214	6615987.901302219
1279696.8682159416	6581468.052621471
1303512.2446815087	6547286.23597376
1327770.829355429	6512468.289901993
1352480.8704178738	6477002.375929351
1377650.769549055	6440876.435262936
1403289.084785873	6404078.184693678
1429404.533431761	6366595.112419884
1456005.9950206485	6328414.473793107
1483102.514336103	6289523.28698482
1510703.3044866556	6249908.32857246
1538817.7500383465	6209556.129043328
1567455.410205595	6168452.968214791
1596626.022101425	6130245.587785305
1626339.5040481905	6096869.110479377
1656605.9589499151	6062871.491251575
1687435.6777273756	6028241.170545049
1718839.1428171454	5992966.373677619
1750827.0317357269	5957035.106838264
1783410.220710006	5920435.153009118
1816599.7883753285	5883154.067811501
1850407.019542302	5845179.175274762
1884843.4090337954	5806497.563526259
1919920.6655932867	5767096.0804012045
1955650.715865947	5726961.328970804
1992045.7084538713	5686079.662987108
2029118.0180466783	5653108.8320651995
2066880.2496290822	5620363.626978512
2105345.242766708	5587009.028053366
2144526.0759716653	5553033.694366745
2184436.0711494284	5518426.073939104
2225088.7981283693	5483174.399806613
2266498.079273693	5447266.686020235
2308677.994187172	5410690.723570376
2351642.884494346	5373434.076235714
2395407.358720879	5335484.076354705
2439986.29725955	5296827.820518495
2485394.857429798	5257452.1651835805
2531648.478631358	5221403.413773379
2578762.8875937983	5190227.196700722
2626754.1037238385	5158470.784923516
2675638.4445520453	5126123.380919597
2725432.531281028	5093173.986223062
2776153.2944368036	5059611.397684683
2827817.979625338	5025424.203662737
2880444.1533962977	4990600.780142881
2934049.709215787	4955129.286785909
2988652.873550383	4918997.662901878
3044272.2120643063	4882193.62334935
3100926.6359319235	4844704.65435833
3158635.408267819	4806518.009275407
3217418.1506763715	4776537.000456084
3277294.849923382	4746597.957872738
3338285.8647317644	4716101.744612605
3400411.9327037027	4685037.991634596
3463694.1773717343	4653396.136927976
3528154.1153808828	4621165.421921219
3593813.6638046256	4588334.8878239365
3660695.147596906	4554893.371900789
3728821.30718283	4520829.503676046
3798215.306190736	4486131.701067462
3868900.7393279755	4450788.166448297
3940901.6404034477	4414786.882635956
4014242.490499326	4382273.396156752
4088948.226294856	4354283.644830739
4165044.248545185	4325772.99946992
4242556.430717777	4296731.7661476815
4321511.127789762	4267150.070531778
4401935.1852088785	4237017.854526956
4483855.948021181	4206324.872855115
4567301.270168747	4175060.6895717587
4652299.523960189	4143214.674517716
4738879.609717651	4110775.999704728
4827070.965603188	4077733.6356338323
4916903.577628021	4044076.347545228
5008407.989848212	4009792.6915982994
5101615.314749833	3983480.5937463464
5196557.243827657	3957017.364401252
5293266.058360566	3930061.6498551653
5391774.640387494	3902604.2848747065
5492116.483887789	3874635.93365992
5594325.706169377	3846147.086670048
5698437.0594691355	3817128.0573901464
5804485.942768984	3787568.9790375815
5912508.413831869	3757459.801207228
6022541.201461928	3726790.2864541886
6134621.717992506	3695550.0068129976
6248788.072006888	3663728.3402519636
6365079.081295578	3635347.0041769454
6483534.286054714	3610935.785478008
6604193.962330305	3586070.2698453623
6727099.135712336	3560742.002735781
6852291.595284057	3534942.372265534
6979813.907830667	3508662.606282271
7109709.432312423	3481893.7693824065
7242022.334607315	3454626.759872952
7376797.60252773	3426852.306676885
7514081.061116962	3398560.9661808508
7653919.388230155	3369743.11902424
7796360.130405221	3340388.966828523
7941451.71902934	3310488.528865653
8089243.486805938	3287990.43524287
8239785.684528512	3265175.324393297
8393129.498166373	3241935.6204486843
8549327.066268368	3218263.4216592927
8708431.497690724	3194150.679222459
8870496.889654402	3169589.1945459517
9035578.34613892	3144570.616460331
9203731.99661823	3119086.438379473
9375015.01514529	3093127.995408248
9549485.639791967	3066686.461396345
9727203.192450536	3039752.845937295
9908228.099003786	3012317.9913116368
10092621.909870483	2988134.3396934606
10280447.320933098	2967297.2387591093
10471768.194855202	2946072.355830813
10666649.582795387	2924452.47421968
10865157.746525371	2902430.242933012
11067360.180959744	2879998.174174882
11273325.63710487	2857148.6408002153
11483124.14543511	2833873.8737214613
11696827.039703846	2810165.959267031
11914506.981197748	2786016.836490561
12136237.983442418	2761418.2944301
12362095.437367693	2736361.9693163075
12592156.13694151	2710926.565226656
12826498.3052806	2691972.335369227
13065201.621247198	2672665.3640689757
13308347.24654076	2652999.086747628
13556017.853293689	2632966.8166589984
13808297.652180923	2612561.7426154083
14065272.421052363	2591776.926671821
14327029.534098294	2570605.301766864
14593657.991557576	2549039.669319945
14865248.449978571	2527072.696783669
15141893.25304352	2504696.915150682
15423686.462966273	2481904.7164141317
15710723.892474487	2458688.350980866
16003103.137387017	2438450.057967456
16300923.609797413	2420949.0591646642
16604286.571875297	2403122.363796253
16913295.17029647	2384963.910593718
17228054.471313924	2366467.5254873135
17548671.49648152	2347626.9195068064
17875255.259042352	2328435.6866431627
18207916.800994623	2308887.3016704237
18546769.230846975	2288975.1179270674
18891927.762076646	2268692.36505607
19243509.75230332	2248032.14670291
19601634.743191857	2226987.43817074
19966424.501097932	2205774.6724366024
20338003.0584698	2189959.110377765
20716496.75602067	2173849.2180179004
21102034.285685964	2157439.5178200225
21494746.734379806	2140724.4303092556
21894767.628566206	2123698.2721757414
22302232.979659364	2106355.25434226
22717281.330269028	2088689.4799958789
23140053.80130654	2070694.9425829728
23570694.139967278	2052365.5237669367
