Frequency [GHz]	Zx real [Ohm/m]	Zy real [Ohm/m]
1.000000000000000166e-10	2.479012567329280614e+02	4.152801508383820419e+02
1.032794731918951654e-10	2.540952205471386662e+02	4.261476958273945570e+02
1.066664958279539403e-10	2.604923137441519430e+02	4.373716390409389305e+02
1.101645949633656381e-10	2.670991978976218206e+02	4.489636684632448578e+02
1.137774133221491146e-10	2.739227530457243347e+02	4.609358553828520257e+02
1.175087130904807540e-10	2.809700848556431083e+02	4.733006669629713770e+02
1.213623798344240958e-10	2.882485320230121033e+02	4.860709792240891147e+02
1.253424265461399975e-10	2.957656739140210220e+02	4.992600904523313261e+02
1.294529978227915867e-10	3.035293384581424903e+02	5.128817350475530930e+02
1.336983741824946476e-10	3.115476102996969416e+02	5.269500978255703103e+02
1.380829765218092491e-10	3.198288392167485199e+02	5.414798287894312807e+02
1.426113707194128486e-10	3.283816488160942981e+02	5.564860583851063893e+02
1.472882723907502473e-10	3.372149455134044160e+02	5.719844132574860396e+02
1.521185517986104510e-10	3.463379278078634798e+02	5.879910325230903254e+02
1.571072389247450498e-10	3.557600958609706367e+02	6.045225845764385895e+02
1.622595287078087593e-10	3.654912613894746869e+02	6.215962844475806151e+02
1.675807864530767868e-10	3.755415578827449963e+02	6.392299117288614525e+02
1.730765534195724819e-10	3.859214511552179943e+02	6.574418290895904420e+02
1.787525525904235329e-10	3.966417502449092467e+02	6.762510013978949246e+02
1.846146946324547531e-10	4.077136186693377908e+02	6.956770154696673671e+02
1.906690840512252406e-10	4.191485860505874825e+02	7.157401004651776475e+02
1.969220255479172543e-10	4.309585601216070927e+02	7.364611489545826544e+02
2.033800305846981002e-10	4.431558391262555574e+02	7.578617386742771487e+02
2.100498241653915480e-10	4.557531246260023181e+02	7.799641549967368519e+02
2.169383518385184289e-10	4.687635347266195254e+02	8.027914141372523318e+02
2.240527869300018610e-10	4.822006177386421655e+02	8.263672871217256670e+02
2.314005380130653023e-10	4.960783662858169123e+02	8.507163245404799454e+02
2.389892566231049743e-10	5.104112318762348082e+02	8.758638821138670210e+02
2.468268452255692806e-10	5.252141399513208171e+02	9.018361470962895510e+02
2.549214654451423314e-10	5.405025054283501049e+02	9.286601655461382734e+02
2.632815465648021228e-10	5.562922487526776649e+02	9.563638704900395169e+02
2.719157943036017723e-10	5.725998124763954138e+02	9.849761110107370996e+02
2.808331998823172083e-10	5.894421783806837993e+02	1.014526682288911843e+03
2.900430493863991314e-10	6.068368851596841296e+02	1.045046356630205992e+03
2.995549334359813486e-10	6.248020466843106533e+02	1.076566915509776891e+03
3.093787571730138678e-10	6.433563708650181070e+02	1.109121182667738822e+03
3.195247505759212065e-10	6.625191791331687909e+02	1.142743058289963528e+03
3.300034791125284578e-10	6.823104265612879544e+02	1.177467554309831939e+03
3.408258547423451742e-10	7.027507226431540630e+02	1.213330830867692612e+03
3.520031472796679687e-10	7.238613527553688982e+02	1.250370233966003525e+03
3.635469961293320139e-10	7.456643003227538884e+02	1.288624334359361455e+03
3.754694224073336536e-10	7.681822697106545093e+02	1.328132967719920543e+03
3.877828414589456106e-10	7.914387098679899282e+02	1.368937276120022489e+03
4.005000757873611052e-10	8.154578387456745077e+02	1.411079750875244372e+03
4.136343684063274911e-10	8.402646685158297259e+02	1.454604276792465043e+03
4.271993966306778827e-10	8.658850316180562459e+02	1.499556177869040994e+03
4.412092863191189219e-10	8.923456076598862410e+02	1.545982264490669650e+03
4.556786265841064474e-10	9.196739511994295526e+02	1.593930882177101466e+03
4.706224849841281415e-10	9.478985204391404977e+02	1.643451961926443119e+03
4.860564232142136024e-10	9.770487068605962122e+02	1.694597072210502120e+03
5.019965133110081441e-10	1.007154865831130792e+03	1.747419472675291900e+03
5.184593543892912175e-10	1.038248348214213593e+03	1.801974169602640131e+03
5.354620899273606527e-10	1.070361533016475960e+03	1.858317973190640259e+03
5.530224256192902378e-10	1.103527861105392731e+03	1.916509556712603171e+03
5.711586478126431938e-10	1.137781870032721145e+03	1.976609517616107723e+03
5.898896425508497150e-10	1.173159229999970421e+03	2.038680440625782012e+03
6.092349152400710261e-10	1.209696781003346359e+03	2.102786962915520689e+03
6.292146109610343618e-10	1.247432571196852905e+03	2.168995841418007785e+03
6.498495354469890483e-10	1.286405896513505468e+03	2.237376022341638418e+03
6.711611767496282870e-10	1.326657341585907488e+03	2.307998712967229039e+03
6.931717276155404727e-10	1.368228822008809402e+03	2.380937455799280542e+03
7.159041085964887260e-10	1.411163627987654309e+03	2.456268205149015103e+03
7.393819919175865964e-10	1.455506469418567576e+03	2.534069406228927164e+03
7.636298261282244400e-10	1.501303522446732586e+03	2.614422076841228318e+03
7.886728615614152294e-10	1.548602477551633910e+03	2.697409891745230652e+03
8.145371766280743462e-10	1.597452589209247435e+03	2.783119269791550778e+03
8.412497049736117954e-10	1.647904727182882652e+03	2.871639463913838426e+03
8.688382635251186617e-10	1.700011429496101755e+03	2.963062654071781253e+03
8.973315814583522479e-10	1.753826957142862739e+03	3.057484043242128337e+03
9.267593301146878953e-10	1.809407350591876593e+03	3.155001956557732683e+03
9.571521538991863169e-10	1.866810488144001056e+03	3.255717943697817645e+03
9.885417021919573871e-10	1.926096146203453827e+03	3.359736884636114155e+03
1.020960662306046580e-09	1.976369847298543846e+03	3.451342761277460340e+03
1.054442793526168950e-09	2.022106549826109131e+03	3.537018648918800864e+03
1.089022962263730067e-09	2.069343175251921821e+03	3.625504254327256604e+03
1.124737178364752061e-09	2.118128913145330898e+03	3.716891721443770166e+03
1.161622632608501755e-09	2.168514566234421636e+03	3.811276216045119781e+03
1.199717735435884489e-09	2.220552603309131428e+03	3.908756024844227341e+03
1.239062156947916503e-09	2.274297213859294516e+03	4.009432657840413867e+03
1.279696868215940940e-09	2.329804364504537716e+03	4.113410954026209765e+03
1.321664183946605026e-09	2.387131857274777758e+03	4.220799190560811439e+03
1.365007806546013663e-09	2.446339389802002643e+03	4.331709195523812014e+03
1.409772871628966933e-09	2.507488617486041676e+03	4.446256464366706496e+03
1.456005995020649598e-09	2.570643217699028810e+03	4.564560280183349278e+03
1.503755321299737753e-09	2.635868956095448539e+03	4.686743837924687796e+03
1.553070573933460069e-09	2.703233755096796358e+03	4.812934372687059295e+03
1.604003107056820079e-09	2.772807764622165905e+03	4.943263292207670020e+03
1.656605958949914401e-09	2.844663435138447767e+03	5.077866313705247194e+03
1.710933907269014249e-09	2.918875593106166434e+03	5.216883605208317022e+03
1.767043526088946692e-09	2.995521518899564398e+03	5.360459931518331359e+03
1.824993244816152494e-09	3.074681027282036212e+03	5.508744804959586872e+03
1.884843409033795523e-09	3.156436550520746550e+03	5.661892641072984588e+03
1.946656343342262358e-09	3.240873224226965249e+03	5.820062919415692704e+03
2.010496416260498236e-09	3.328078976011506256e+03	5.983420349634191552e+03
2.076430107255774870e-09	3.418144617047613337e+03	6.152135042983677522e+03
2.144526075971667793e-09	3.511163936636606650e+03	6.326382689472345191e+03
2.214855233726359314e-09	3.607233799874804390e+03	6.506344740815117802e+03
2.287490817355702788e-09	3.706454248523390106e+03	6.692208599387264258e+03
2.362508465477946229e-09	3.808928605186283221e+03	6.884167813374702746e+03
2.439986297259550245e-09	3.914763580904504579e+03	7.082422278324235776e+03
2.520004993764092080e-09	4.024069386279052651e+03	7.287178445303518856e+03
2.602647881969005809e-09	4.136959846238044520e+03	7.498649535887645470e+03
2.688001021537606561e-09	4.253552518567598781e+03	7.717055764196082237e+03
2.776153294436799262e-09	4.373968816329912443e+03	7.942624566211322417e+03
2.867196497493770032e-09	4.498334134296017510e+03	8.175590836617938294e+03
2.961225437988034610e-09	4.626777979524834336e+03	8.416197173408689196e+03
3.058338032378433485e-09	4.759434106224570314e+03	8.664694130512500124e+03
3.158635408267817403e-09	4.896440655036829412e+03	8.921340478707201328e+03
3.262222009711669644e-09	5.037940296888528792e+03	9.186403475088929554e+03
3.369205705980266915e-09	5.184080381561380818e+03	9.460159141378628192e+03
3.479697903887691433e-09	5.335013091133691887e+03	9.742892551355587784e+03
3.593813663804627762e-09	5.490895598454230822e+03	1.003489812771728066e+04
3.711671819475765297e-09	5.651890230813197377e+03	1.033647994867458874e+04
3.833395101766601886e-09	5.818164638980769269e+03	1.064795206460182635e+04
3.959110266468459240e-09	5.989891971789175841e+03	1.096963882507112066e+04
4.088948226294862618e-09	6.167251056440193679e+03	1.130187521661188657e+04
4.223044187206674123e-09	6.350426584725730208e+03	1.164500721154694475e+04
4.361537789208003199e-09	6.539609305355502329e+03	1.199939212826871517e+04
4.504573251759458750e-09	6.734996222592028971e+03	1.236539900333050355e+04
4.652299523960189308e-09	6.936790801399795782e+03	1.274340897574042719e+04
4.804870439655131104e-09	7.145203179322264077e+03	1.313381568385823266e+04
4.962444877628916452e-09	7.360450385307286524e+03	1.353702567530811575e+04
5.125186927053329472e-09	7.582756565708890776e+03	1.395345883033463724e+04
5.293266058360561204e-09	7.812353217700697314e+03	1.438354879904242807e+04
5.466857299720180771e-09	8.049479430344059438e+03	1.482774345297501168e+04
5.646141419303669251e-09	8.294382133562019590e+03	1.528650535150315409e+04
5.831305113526221869e-09	8.547316355278238916e+03	1.576031222350814824e+04
6.022541201461928965e-09	8.808545486988770790e+03	1.624965746486191347e+04
6.220048825634711276e-09	9.078341558043166515e+03	1.675505065222167468e+04
6.424033659394191079e-09	9.356985518920579125e+03	1.727701807367457150e+04
6.634708121092347870e-09	9.644767533795804411e+03	1.781610327678445174e+04
6.852291595284060743e-09	9.941987282699952630e+03	1.837286763461177907e+04
7.077010661181889919e-09	1.024895427359043788e+04	1.894789093029609285e+04
7.309099328602911004e-09	1.056598816465513846e+04	1.954177196080951762e+04
7.548799281653435948e-09	1.089341909718653369e+04	2.015512916051039065e+04
7.796360130405233414e-09	1.123158803937226185e+04	2.078860124514600102e+04
8.052039670825474778e-09	1.158084714136028560e+04	2.144284787697537467e+04
8.316104153230961616e-09	1.194156010196826719e+04	2.211855035170448173e+04
8.588828559546249041e-09	1.231410254741907193e+04	2.281641230794928924e+04
8.870496889654407999e-09	1.269886242249687530e+04	2.353716045996559478e+04
9.161402457138517586e-09	1.309624039453101614e+04	2.428154535440834297e+04
9.461848194721997291e-09	1.350665027062851368e+04	2.505034215190885880e+04
9.772146969725725887e-09	1.393051942858952498e+04	2.584435143428356241e+04
1.009262190987047331e-08	1.435048867534424971e+04	2.663818133786808176e+04
1.042360673976401127e-08	1.473900457318952431e+04	2.739143056710814926e+04
1.076544612842315905e-08	1.514026174575089863e+04	2.816938240288932866e+04
1.111849604819270880e-08	1.555467803971696412e+04	2.897284696057078327e+04
1.148312414543511117e-08	1.598268500494649743e+04	2.980266092302777906e+04
1.185971012337669343e-08	1.642472834386017348e+04	3.065968841192615218e+04
1.224864613750930795e-08	1.688126837557008184e+04	3.154482188757012773e+04
1.265033720395903769e-08	1.734970491365074122e+04	3.245437574216470603e+04
1.306520162124721228e-08	1.781579128706184201e+04	3.336722448427144991e+04
1.349367140588306343e-08	1.829716283814002963e+04	3.431000985615813261e+04
1.393619274224142065e-08	1.879432084018924070e+04	3.528371362157295516e+04
1.439322644719406651e-08	1.930778300563701487e+04	3.628934974094302743e+04
1.486524844997857277e-08	1.983808402515119087e+04	3.732796542725589097e+04
1.535275028780422776e-08	2.038577612443666294e+04	3.840064223656816466e+04
1.585623961771137302e-08	2.095106433670231490e+04	3.950794614780146367e+04
1.637624074521687477e-08	2.150927417768982559e+04	4.061292165600442240e+04
1.691329517029648562e-08	2.208579036076705961e+04	4.175413453977595054e+04
1.746796215127245689e-08	2.268121323751523232e+04	4.293277319413318764e+04
1.804081928719382751e-08	2.329616284788477060e+04	4.415006498718937655e+04
1.863246311931559514e-08	2.393127956587003791e+04	4.540727753826598200e+04
1.924350975230330612e-08	2.458722476635888597e+04	4.670572003792029864e+04
1.987459549580983990e-08	2.526468151385130477e+04	4.804674461126298411e+04
2.052637752709252173e-08	2.593590456299152356e+04	4.938849814370107197e+04
2.119953457536071000e-08	2.662514415640563675e+04	5.076817951698816614e+04
2.189476762856620985e-08	2.733698717751369622e+04	5.219310717104579089e+04
2.261280066337277307e-08	2.807217489966736321e+04	5.366476494552213990e+04
2.335438139906479724e-08	2.883147290607919786e+04	5.518468534218893183e+04
2.412028207618007283e-08	2.961567188705787339e+04	5.675445112080249237e+04
2.491130026067788373e-08	3.042558846338885633e+04	5.837569694730122865e+04
2.572825967447932303e-08	3.123211894578684587e+04	6.000419514434626035e+04
2.657201105324503850e-08	3.205456469265076885e+04	6.166994734480210900e+04
2.744343303228365032e-08	3.290398232730100426e+04	6.339032744211537647e+04
2.834343306151309448e-08	3.378125638556681224e+04	6.516712694351867685e+04
2.927294835042816131e-08	3.468730041139288369e+04	6.700219610824422853e+04
3.023294684405776334e-08	3.562305790815269575e+04	6.889744587427968509e+04
3.122442823092858392e-08	3.658950332115992933e+04	7.085484984831178735e+04
3.224842498408442807e-08	3.755720457598375651e+04	7.282933177877556591e+04
3.330600343624588813e-08	3.853662568669874599e+04	7.483758484098654299e+04
3.439826489022924478e-08	3.954816665017538617e+04	7.691169802399810578e+04
3.552634676578139226e-08	4.059288082837429101e+04	7.905383119281614199e+04
3.669142378402493899e-08	4.167185612797919021e+04	8.126621504464029567e+04
3.789470919074667737e-08	4.278621613328177045e+04	8.355115343178679177e+04
3.913745601980383687e-08	4.393712127621944092e+04	8.591102576079107530e+04
4.042095839796305955e-08	4.509641185427142045e+04	8.830236694774073840e+04
4.174655289253134782e-08	4.626026881535904249e+04	9.071980503063481592e+04
4.311561990318228626e-08	4.746229415347757458e+04	9.321652234738814877e+04
4.452958509942655287e-08	4.870373959031944833e+04	9.579511883922170091e+04
4.598992090522439315e-08	4.998589789745456801e+04	9.845827971173211699e+04
4.749814803228499868e-08	5.131010424254982354e+04	1.012087782311135234e+05
4.905583706365045989e-08	5.267773757973786996e+04	1.040494786120815261e+05
5.066461008921269181e-08	5.406428569484481704e+04	1.069422949918666855e+05
5.232614239486661694e-08	5.544414885168863839e+04	1.098474436187048850e+05
5.404216420705915059e-08	5.686926425084599759e+04	1.128478658159449697e+05
5.581446249454960394e-08	5.834111592747228133e+04	1.159466860547872056e+05
5.764488282925879445e-08	5.986123658525804785e+04	1.191471312726273900e+05
5.953533130814369715e-08	6.143120919250030420e+04	1.224525342334078450e+05
6.148777653810024108e-08	6.305266863051717519e+04	1.258663369981712021e+05
6.350425168595962148e-08	6.470816163908894669e+04	1.293614124862625758e+05
6.558685659571428548e-08	6.634013168527955713e+04	1.328463805335810175e+05
6.773775997517751128e-08	6.802562175163481152e+04	1.364456371737574809e+05
6.995920165435375620e-08	6.976638701286818832e+04	1.401629304705559625e+05
7.225349491787214948e-08	7.156424020417753491e+04	1.440021314044870378e+05
7.462302891391107044e-08	7.342105350892549905e+04	1.479672379038293730e+05
7.707027114212294845e-08	7.533876050822621619e+04	1.520623790078477177e+05
7.959777002314985573e-08	7.731174795232685574e+04	1.562794475861788669e+05
8.220815755240541849e-08	7.923686170704902906e+04	1.604518026813659526e+05
8.490415204088747078e-08	8.122510905127080332e+04	1.647609890433703549e+05
8.768856094587425811e-08	8.327856043413488078e+04	1.692114940169054607e+05
9.056428379445295063e-08	8.539935420460868045e+04	1.738079521079518017e+05
9.353431520292386860e-08	8.758969883824045246e+04	1.785551498098705197e+05
9.660174799522647250e-08	8.985187523694231641e+04	1.834580305877899518e+05
9.976977642363202159e-08	9.218823910419296590e+04	1.885217000264518429e+05
1.030416994950587396e-07	9.446327914436263382e+04	1.935236824780051538e+05
1.064209244064724761e-07	9.680214522688761645e+04	1.986719001866305771e+05
1.099109700929497372e-07	9.921771379558322951e+04	2.039889523148706066e+05
1.135154708920999096e-07	1.017125002879210515e+05	2.094803757422553608e+05
1.172381803286598596e-07	1.042891026344701531e+05	2.151518889287946222e+05
1.210829750232039531e-07	1.069502039642360469e+05	2.210093978698613064e+05
1.250538587290391570e-07	1.096985753987208736e+05	2.270590022463632631e+05
1.291549665014884007e-07	1.123919237984274951e+05	2.330632468566310417e+05
1.333905690039058854e-07	1.151350605841067154e+05	2.391996811820701114e+05
1.377650769549053468e-07	1.179681578052892437e+05	2.455373582261501579e+05
1.422830457214352017e-07	1.208941656903408439e+05	2.520828776898797369e+05
1.469491800624817218e-07	1.239161312195755017e+05	2.588430557096927951e+05
1.517683390283405561e-07	1.270372012982096494e+05	2.658249319553898531e+05
1.567455410205594968e-07	1.302606260333728715e+05	2.730357769608558156e+05
1.618859690178197646e-07	1.334418058512502466e+05	2.802299921685290174e+05
1.671949759731990056e-07	1.366488625439754687e+05	2.875259375887330971e+05
1.726780903884356132e-07	1.399610938011873513e+05	2.950611515830879216e+05
1.783410220710008120e-07	1.433819487945330620e+05	3.028434809003394330e+05
1.841896680799711039e-07	1.469149898103191808e+05	3.108810296212552348e+05
1.902301188668944219e-07	1.505638959590766754e+05	3.191821675977589912e+05
1.964686646180446931e-07	1.543324670067801781e+05	3.277555391688246746e+05
2.029118018046678038e-07	1.580805809953237185e+05	3.363586281487217639e+05
2.095662399480432992e-07	1.618172563999849954e+05	3.450093226370149059e+05
2.164389086064020114e-07	1.656764750728102808e+05	3.539437143319643219e+05
2.235369645909794139e-07	1.696622557874274789e+05	3.631711070074086310e+05
2.308677994187169850e-07	1.737787491120684426e+05	3.727011095519551891e+05
2.384390470093720426e-07	1.780302417317369836e+05	3.825436459751368384e+05
2.462585916350547006e-07	1.824211609121229558e+05	3.927089657417192357e+05
2.543345761304648365e-07	1.868256711222098384e+05	4.029749741927064606e+05
2.626754103723835758e-07	1.911635591478820133e+05	4.132010578173098620e+05
2.712897800372467241e-07	1.956437070484506548e+05	4.237625031129634008e+05
2.801866556459195443e-07	2.002707801983755780e+05	4.346703081757642212e+05
2.893753019050950594e-07	2.050495969718216802e+05	4.459358317814237089e+05
2.988652873550382326e-07	2.099851337602426356e+05	4.575708052136573242e+05
3.086664943337274455e-07	2.150825301545162511e+05	4.695873444804857718e+05
3.187891292677645596e-07	2.202439366879551962e+05	4.818094921146441484e+05
3.292437333007768907e-07	2.252600969147877477e+05	4.938578404104700312e+05
3.400411932703706463e-07	2.304407607715217164e+05	5.063013110587238334e+05
3.511927530450727317e-07	2.357913231105995073e+05	5.191528619910282432e+05
3.627100252330649086e-07	2.413173557072031836e+05	5.324258760909009725e+05
3.746050032748993774e-07	2.470246130613876740e+05	5.461341751299349125e+05
3.868900739327976195e-07	2.529190383904950868e+05	5.602920341610187897e+05
3.995780301895269929e-07	2.589493909524069168e+05	5.748066567337710876e+05
4.126820845702951630e-07	2.647255729594553704e+05	5.889502656872497173e+05
4.262158829015325345e-07	2.706911833069403656e+05	6.035577105047247605e+05
4.401935185208874400e-07	2.768524342465037480e+05	6.186442025590090780e+05
4.546295469532399562e-07	2.832157417589155375e+05	6.342254520758112194e+05
4.695390010680058238e-07	2.897877322353147320e+05	6.503176844934792025e+05
4.849374067335232931e-07	2.965752493775613257e+05	6.669376573592619970e+05
5.008407989848212921e-07	3.035853613248834154e+05	6.841026777796789538e+05
5.172657387216018967e-07	3.102198479494888452e+05	7.006643279461739585e+05
