# Frequency (Hz)	Imaginary Part (Ohm/m)
1000.0	24988728.50693813
1018.6101701559753	24988688.948918264
1037.566678745186	24988648.654716928
1056.875971184804	24988607.61063365
1076.544612842316	24988565.80271299
1096.5792912678098	24988523.21673982
1116.9868184678226	24988479.838234432
1137.7741332214914	24988435.65244769
1158.9483034398106	24988390.644355934
1180.5165285688056	24988344.798655923
1202.4861420374123	24988298.09975965
1224.8646137509306	24988250.531788964
1247.6595526308697	24988202.07857025
1270.8787092020582	24988152.72362889
1294.529978227916	24988102.45018367
1318.6214013947485	24988051.241141085
1343.1611700460153	24987999.079089504
1368.1576279674719	24987945.94629327
1393.6192742241421	24987891.824686654
1419.5547660501015	24987836.695867725
1445.9729217920196	24987780.541092098
1472.8827239075017	24987723.341266546
1500.2933220192183	24987665.076942507
1528.2140360258693	24987605.72830947
1556.654359271062	24987545.275188293
1585.6239617711371	24987483.697024237
1615.1326935030913	24987420.972880065
1645.1905877536624	24987357.081428904
1675.8078645307671	24987292.00094696
1706.994934038408	24987225.709306177
1738.7624002162504	24987158.183966674
1771.1210643450886	24987089.401969124
1804.0819287193829	24987019.339926887
1837.6562003881704	24986947.974018127
1871.8552949655793	24986875.279977657
1906.690840512252	24986801.23308872
1942.1746814890264	24986725.80817459
1978.3188827841643	24986648.979589976
2015.1357338155585	24986570.72121232
2052.6377527092523	24986491.006432947
2090.83769055575	24986409.808147963
2129.748535745521	24986327.098749086
2169.3835183851843	24986242.85011421
2209.756114795903	24986157.03359791
2250.880052095462	24986069.620021638
2292.7693128656488	24985980.579663835
2335.438139906479	24985889.88224982
2378.9010410788933	24985797.49694151
2423.1727942376006	24985703.392326884
2468.2684522556924	24985607.53640937
2514.2033481427966	24985509.896596923
2560.9931002584594	24985410.439690944
2608.6536176225477	24985309.13187503
2657.201105324507	24985205.938703418
2706.652070033241	24985100.825089328
2757.0233256095826	24984993.75529299
2808.3319988231724	24984884.692909528
2860.595535175742	24984773.600856546
2913.8317048327885	24984660.44136156
2968.058608665602	24984545.17594912
3023.2946844057765	24984427.76542773
3079.5587129142264	24984308.169876568
3136.8698245668766	24984186.348631848
3195.2475057592137	24984062.260273036
3254.711605531848	24983935.86260875
3315.282342319423	24983807.112662427
3376.9803108250912	24983675.966657694
3439.8264890229248	24983542.380003493
3503.8422452906757	24983406.30727893
3569.0493456752297	24983267.70221781
3635.4699612933177	24983126.51769292
3703.126675869927	24982982.70569999
3772.0424934169973	24982836.217341416
3842.240846055061	24982687.002809554
3913.745601980384	24982535.01136986
3986.581073580439	24982380.191343617
4060.7720257003652	24982222.490090344
4136.343684063274	24982061.85398991
4213.321743847289	24981898.228424318
4291.732378422157	24981731.5577591
4371.602248248502	24981561.785324447
4452.958509942656	24981388.853395898
4535.828825510186	24981212.703174725
4620.241371751313	24981033.274767976
4706.224849841282	24980850.50716804
4793.808495089107	24980664.33823197
4883.02208687788	24980474.70466033
4973.895958790063	24980281.541975643
5066.461008921268	24980084.784500536
5160.7487103859075	24979884.36533533
5256.791122018419	24979680.216335356
5354.620899273607	24979472.268087763
5454.271305329837	24979260.449887894
5555.7762223988775	24979044.68971528
5659.170163246243	24978824.91420915
5764.488282925873	24978601.048643444
5871.766390733255	24978373.016901482
5981.040962380944	24978140.74144999
6092.349152400711	24977904.143312823
6205.7288067765	24977663.14204407
6321.218475812449	24977417.6557007
6438.857427240419	24977167.6008147
6558.685659571435	24976912.89236472
6680.743915695614	24976653.44374716
6805.073696735207	24976389.166746676
6931.7172761554075	24976119.97150624
7060.717714137772	24975845.766496576
7192.118872221193	24975566.458485022
7325.9654282152305	24975281.952503853
7462.302891391108	24974992.15181796
7601.17761795533	24974696.957891993
7742.63682681127	24974396.270356838
7886.728615614156	24974089.98697548
8033.501977124734	24973778.003608294
8183.006815867389	24973460.214177545
8335.293965098195	24973136.51063142
8490.415204088747	24972806.78290722
8648.423275731726	24972470.918893963
8809.37190447399	24972128.804394282
8973.31581458352	24971780.323085543
9140.310748756232	24971425.356480356
9310.413487069076	24971063.78388624
9483.681866285928	24970695.482364632
9660.174799522645	24970320.32668903
9839.952296278227	24969938.189302474
10023.075482838643	24969548.94027413
10209.606623060476	24969152.44725514
10399.609139541202	24968748.5754336
10593.147635183701	24968337.187488735
10790.287915161836	24967918.14354422
10991.097009294961	24967491.30112059
11195.643194838794	24967056.515086833
11403.996019700331	24966613.637611
11616.226326085018	24966162.51810999
11832.40627458378	24965703.0031983
12052.609368708414	24965234.936635915
12276.910479883603	24964758.15927516
12505.385872903913	24964272.5090066
12738.113231864785	24963777.820703898
12975.171686575868	24963273.926167715
13216.641839466038	24962760.65406847
13462.60579298911	24962237.829888128
13713.147177539457	24961705.275860816
13968.351179887397	24961162.810912445
14228.30457214352	24960610.250599083
14493.095741262152	24960047.40704426
14762.81471909391	24959474.08887512
15037.553212997384	24958890.10115729
15317.404637020798	24958295.24532867
15602.46414366368	24957689.31913186
15892.828656229764	24957072.116545424
16188.596901781992	24956443.42771383
16489.86944471065	24955803.038876105
16796.74872092653	24955150.732293155
17109.339072690134	24954486.286173694
17427.746784089173	24953809.474598892
17752.08011717636	24953120.067445517
18082.44934877952	24952417.83030771
18418.96680799711	24951702.52441728
18761.746914391195	24950973.90656252
19110.90621689136	24950231.7290055
19466.563433422634	24949475.739397857
19828.839491270715	24948705.680694982
20197.857568198782	24947921.291068617
20573.743134329117	24947122.303817835
20956.623994804308	24946308.44727836
21346.630333242454	24945479.44473021
21743.8947560008	24944635.014303576
22148.552337263594	24943774.868883014
22560.74066496859	24942898.71600982
22980.599887588487	24942006.257782575
23408.272761782944	24941097.19075586
23843.904700937204	24940171.2058371
24287.643824604504	24939227.98818144
24739.641008868115	24938267.21708471
25200.049937640895	24937288.565874383
25669.02715491952	24936291.70179852
26146.73211801092	24935276.285912577
26633.327251749808	24934241.972964216
27128.978003724646	24933188.411275893
27633.85290053167	24932115.24262528
28148.123605075813	24931022.10212348
28671.9649749377	24929908.61809093
29205.555121827452	24928774.41193107
29749.075472144435	24927619.098001577
30302.71082866393	24926442.28348328
30866.649433372746	24925243.56824656
31441.083031472648	24924022.544715308
32026.206936576502	24922778.797728375
32622.220097116733	24921511.90439838
33229.325163989684	24920221.433967955
33847.72855945983	24918906.947663236
34477.64054734464	24917567.998544715
35119.275304507275	24916204.131355267
35772.850993678774	24914814.882365353
36438.58983763541	24913399.779215354
37116.71819475767	24911958.34075494
37807.46663599349	24910490.076879513
38511.07002325569	24908994.488363527
39227.76758927724	24907471.066690776
39957.803018952654	24905919.293881476
40701.42453219439	24904338.642316148
41458.88496832911	24902728.574556235
42230.44187206672	24901088.543161348
43016.357581068	24899417.990503136
43816.89931514195	24897716.348575708
44632.33926710398	24895983.038802467
45462.95469532399	24894217.471839406
46309.02801799737	24892419.047374744
47170.84690917022	24890587.153924778
48048.70439655134	24888721.168626007
48942.898961145314	24886820.457023315
49853.73463873893	24884884.372854274
50781.5211232767	24882912.257829417
51726.57387216025	24880903.441408377
52689.21421350677	24878857.24057193
53669.76945540476	24876772.959589746
54668.57299720181	24874649.889783826
55685.96444286409	24872487.309287574
56722.28971644549	24870284.4828003
57777.90117970507	24868040.661337275
58853.15775191451	24865755.081975028
59948.42503189409	24863426.967591945
61064.07542232036	24861055.526604053
62200.48825634718	24858639.95269585
63358.04992658254	24856179.4245462
64537.15401646702	24853673.105549004
65738.20143409586	24851120.14352882
66961.60054853215	24848519.670451023
68207.76732865692	24845870.802126776
69477.1254846024	24843172.63791228
70770.10661181889	24840424.260402653
72087.15033782135	24837624.735119913
73428.70447166757	24834773.110195305
74795.2251562183	24831868.416045632
76187.17702322999	24828909.66504358
77605.0333513357	24825895.85118194
79049.2762269642	24822825.94973151
80520.3967082547	24819698.916892722
82018.89499202212	24816513.689440724
83545.28058382872	24813269.184363857
85100.07247122246	24809964.29849544
86683.79930019774	24806597.908138666
88296.99955494083	24803168.868684545
89940.22174092053	24799676.014222704
91614.0245713852	24796118.157145
93318.97715733238	24792494.087741688
95055.6592010119	24788802.57379012
96824.66119303113	24785042.36013579
98626.5846131283	24781212.168265525
100462.04213468131	24777310.695872825
102331.6578330245	24773336.616415035
104236.06739764012	24769288.57866232
106175.9183482999	24765165.20623824
108151.87025522892	24760965.09715173
110164.59496336569	24756686.823320437
112214.77682079803	24752328.93008517
114303.11291144787	24747889.93571528
116430.31329208757	24743368.330904845
118597.10123376705	24738762.578259505
120804.21346773289	24734071.11177374
123052.40043592616	24729292.33629839
125342.42654613995	24724424.62699832
127675.07043192645	24719466.328799892
130051.12521734099	24714415.755828314
132471.39878661174	24709271.190834347
134936.71405883064	24704030.88461047
137447.90926775365	24698693.05539609
140005.8382468096	24693255.888271768
142611.37071941298	24687717.534542095
145265.39259467812	24682076.111107133
147968.80626863963	24676329.69982212
150722.53093107554	24670476.346845318
153527.5028780421	24664514.06197362
156384.6758302248	24658440.817965947
159295.0212572123	24652254.549853887
162259.5287078087	24645953.154239643
165279.2061464897	24639534.48858079
168355.08029612005	24632996.370461855
171488.19698705408	24626336.57685222
174679.62151272458	24619552.843350314
177930.43899185772	24612642.863413643
181241.75473742394	24605604.28757457
184614.69463245457	24598434.72264148
188050.40551285836	24591131.730885044
191550.05555735278	24583692.829209365
195114.83468466165	24576115.488307737
198745.9549580986	24568397.131802596
202444.65099768018	24560535.13536957
206212.18039991445	24552526.82584516
210049.82416539153	24544369.48031784
213958.88713434216	24536060.32520223
217940.6984302958	24527596.53529607
221996.61191199525	24518975.2328196
226128.00663372796	24510193.48643706
230336.28731421314	24501248.31026009
234622.88481422624	24492136.66283238
238989.25662310526	24482855.446095653
243436.8873543108	24473401.504336193
247967.289250216	24463771.62311194
252582.00269627848	24453962.52815952
257282.5967447932	24443970.884280965
262070.66964838552	24433793.294209693
266947.8494034318	24423426.29745542
271915.7943036019	24412866.369127534
276976.1935036891	24402109.918736637
282130.76759394706	24391153.28897369
287381.2691851069	24379992.754466522
292729.4835042813	24368624.52051314
298177.22900196735	24357044.721791517
303726.35797033116	24345249.421045307
309378.7571730137	24333234.60774517
315136.34848664823	24320996.19672513
321001.08955431683	24308530.026793566
326974.9744511768	24295831.85931838
333060.03436245886	24282897.376785807
339258.33827409917	24269722.181332435
345571.9936762143	24256301.79324983
352003.14727966755	24242631.64946145
358553.9857459817	24228707.101971116
365226.7364308176	24214523.41628263
372023.6681413066	24200075.769790053
378947.09190746717	24185359.25013789
385999.3617679763	24170368.853550907
393182.87557057705	24155099.483132724
400500.07578736113	24139545.94713289
407953.4503452449	24123702.957181565
415545.53347188793	24107565.12649147
423278.90655735444	24091126.968026284
431156.19903182285	24074382.892635014
439180.0892596086	24057327.207151603
447353.3054498463	24039954.112459227
455678.6265841069	24022257.701518476
464158.8833612772	24004231.957358975
472796.9591600391	23985870.751033477
481595.7910192351	23967167.839533996
490558.37063650455	23948116.863669094
499687.7453854889	23928711.34590171
508987.01935196744	23908944.68814671
518459.3543892913	23888810.169527475
528107.971193433	23868300.944090724
537936.1503980698	23847410.038478833
547947.2336900292	23826130.349558786
558144.6249454955	23804454.642007075
568531.7913873753	23782375.545849573
579112.2647641759	23759885.553955697
589889.6425508494	23736977.01948586
600867.5891719693	23713642.153291516
612049.837247669	23689873.021266736
623440.1888627864	23665661.541650508
635042.5168595962	23640999.482278902
646860.7661546321	23615878.457785986
658898.9550799957	23590289.92675276
671161.1767496273	23564225.18880298
683651.6004510239	23537675.381644867
696374.4730628222	23510631.478057943
709334.1204987989	23483084.282823585
722534.9491787221	23455024.42959859
735981.4475265756	23426442.377730533
749678.1874966876	23397328.409013793
763629.8261282241	23367672.62438534
777841.1071286482	23337464.940558817
792316.8624866261	23306695.086596277
807062.014114949	23275352.600415822
822081.5755240541	23243426.825234435
837380.653526649	23210906.90594456
852964.4499741016	23177781.785423245
868838.2635251193	23144040.200772583
885007.4914473438	23109670.67949025
901477.6314524917	23074661.53556867
918254.2835656282	23039000.86552169
935343.1520292377	23002676.544337265
952750.04724273	22965676.22135479
970480.8877380306	22927987.316065792
988541.7021919574	22889597.013836373
1006938.6314760271	22850492.261550117
1025677.9307444209	22810659.763169922
1044765.9715608052	22770085.97521712
1064209.2440647245	22728757.10216665
1084014.359178331	22686659.09175636
1104188.0508541602	22643777.630209096
1124737.1783647507	22600098.13736591
1145668.7286348727	22555605.761728574
1166989.8186171474	22510285.375409994
1188707.6977119034	22464121.568990488
1210829.7502320395	22417098.64627847
1233363.4979137748	22369200.61897355
1256316.6024741214	22320411.20123034
1279696.8682159416	22270713.80412112
1303512.244681509	22220091.5299954
1327770.8293554292	22168527.166734513
1352480.870417874	22116003.181899358
1377650.769549055	22062501.716769144
1403289.084785873	22008004.580269266
1429404.533431761	21952493.242786113
1456005.9950206485	21895948.82986681
1483102.5143361029	21838352.115801714
1510703.3044866556	21779683.517087433
1538817.7500383463	21719923.085768275
1567455.410205595	21659050.502653666
1596626.022101425	21597045.07040947
1626339.5040481905	21533885.706520613
1656605.9589499151	21469550.936122827
1687435.6777273756	21404018.88470101
1718839.1428171457	21337267.270651553
1750827.0317357269	21269273.39770644
1783410.2207100063	21200014.14721628
1816599.7883753285	21129465.970289603
1850407.019542302	21057604.879786134
1884843.4090337954	20984406.442160808
1919920.6655932867	20909845.769156106
1955650.715865947	20833897.50933986
1992045.7084538713	20756535.83948537
2029118.018046678	20677734.455791347
2066880.2496290822	20535368.97918459
2105345.242766708	20328231.079629708
2144526.0759716653	20117238.308518402
2184436.0711494284	19902318.926034987
2225088.7981283693	19683399.857273765
2266498.079273693	19460406.667392515
2308677.994187172	19233263.53630391
2351642.884494346	19001893.232896045
2395407.3587208795	18766217.088772673
2439986.29725955	18526154.97150548
2485394.8574297987	18281625.25738794
2531648.478631358	18032544.803682454
2578762.8875937983	17778828.920351043
2626754.1037238385	17520391.341259502
2675638.4445520453	17257144.19484639
2725432.531281028	16988997.974245463
2776153.294436804	16715861.506852439
2827817.979625338	16437641.92332549
2880444.1533962977	16154244.626008315
2934049.7092157872	15865573.256766358
2988652.8735503824	15571529.664223649
3044272.212064306	15272013.870390411
3100926.6359319235	14966924.036669604
3158635.408267819	14656156.429230329
3217418.1506763715	14339605.383737676
3277294.849923382	14017163.269425347
3338285.8647317644	13688720.452500183
3400411.9327037027	13354165.258865602
3463694.1773717343	13013383.936150849
3528154.115380883	12666260.615034431
3593813.6638046256	12312677.269846922
3660695.147596906	11952513.67844112
3728821.30718283	11585647.381315352
3798215.306190736	11211953.639975496
3868900.7393279755	10831305.394523127
3940901.6404034477	10443573.220453314
4014242.490499326	10048625.28464907
4088948.226294856	9646327.300556848
4165044.248545185	9180845.241246838
4242556.430717777	8701214.363845864
4321511.127789762	8212657.474204402
4401935.185208879	7715008.4577157805
4483855.948021182	7208098.1083524665
4567301.270168747	6691754.071133563
4652299.523960189	6165800.783523046
4738879.609717651	5630059.415736003
4827070.965603188	5084347.809934793
4916903.577628021	4528480.418293649
5008407.989848212	3962268.239909783
5101615.314749834	3385518.756541867
5196557.243827658	2798035.8671511053
5293266.058360566	2199619.821224997
5391774.640387494	1590067.150860267
5492116.483887789	969170.6015808828
5594325.706169377	336719.06187022175
5698437.059469136	-307502.5086098682
5804485.942768984	-963713.1521348075
5912508.413831869	-1632135.9873937662
6022541.201461928	-2312998.285353181
6134621.717992506	-3006531.546530333
6248788.072006888	-3517923.541243263
6365079.081295578	-4022106.439947712
6483534.286054714	-4535672.268186666
6604193.962330305	-5058795.64387556
6727099.135712337	-5591654.434598535
6852291.595284058	-6134429.818085974
6979813.907830667	-6687306.343816646
7109709.432312424	-7250471.995766289
7242022.334607315	-7824118.256324839
7376797.602527731	-8408440.17140166
7514081.061116962	-9003636.416743925
7653919.388230155	-9609909.365488278
7796360.130405221	-10227465.156969588
7941451.71902934	-10856513.766811315
8089243.486805938	-11497269.078318503
8239785.684528511	-11985697.484302461
8393129.498166373	-12130883.874789087
8549327.066268368	-12278772.208706964
8708431.497690724	-12429412.769683175
8870496.889654404	-12582856.777131526
9035578.34613892	-12739156.40366791
9203731.99661823	-12898364.792849466
9375015.015145289	-13060536.07724393
9549485.639791965	-13225725.396835387
9727203.192450536	-13393988.917772392
9908228.099003788	-13565383.851465078
10092621.909870485	-13739968.474037679
10280447.320933098	-13787839.090323277
10471768.194855202	-13366972.246512935
10666649.582795387	-12938272.99912627
10865157.746525373	-12501595.5858
11067360.180959744	-12056791.531508407
11273325.63710487	-11603709.598080434
11483124.145435112	-11142195.732776761
11696827.039703846	-10672093.015910454
11914506.981197748	-10193241.60749247
12136237.983442418	-9705478.692884352
12362095.43736769	-9100525.869458219
12592156.13694151	-8263344.800892624
12826498.3052806	-7410583.650189656
13065201.621247198	-6541952.469369712
13308347.24654076	-5657155.914471812
13556017.853293689	-4755893.145133946
13808297.652180923	-3837857.7223034566
14065272.421052365	-2902737.5040448755
14327029.534098294	-1950214.5394082197
14593657.991557576	-1156954.8075563821
14865248.449978571	-354345.94030693814
15141893.25304352	463199.6145307076
15423686.462966274	1295959.8312541496
15710723.89247449	2144217.8573099384
16003103.137387017	3008262.109566888
16300923.60979741	3888386.3723805402
16604286.571875297	4327230.173726239
16913295.17029647	4602396.233692596
17228054.471313924	4882683.180856075
17548671.49648152	5168186.315798794
17875255.259042356	5459002.712662835
18207916.800994623	5755231.25215666
18546769.230846975	5814873.904842384
18891927.762076642	5403778.203447811
19243509.75230332	4985031.94109985
19601634.743191857	4558492.739557459
19966424.501097932	4124015.570896174
20338003.0584698	3681452.7081972146
