# Frequency (Hz)	Real Part (Ohm/m)
1000.0	4226951257.2426085
1018.6101701559753	4174565656.412065
1037.566678745186	4121205150.6363397
1056.875971184804	4066851596.768522
1076.544612842316	4011486514.014639
1096.5792912678098	3955091077.65001
1116.9868184678226	3897646112.6186147
1137.7741332214914	3839132087.013377
1158.9483034398106	3779529105.435119
1180.5165285688056	3718816902.2278824
1202.4861420374123	3656974834.5884185
1224.8646137509306	3593981875.547387
1247.6595526308697	3529816606.8199697
1270.8787092020582	3477660657.8111224
1294.529978227916	3437209772.3797855
1318.6214013947485	3396006089.087613
1343.1611700460153	3354035598.2383213
1368.1576279674719	3311284029.4127913
1393.6192742241421	3267736846.616986
1419.5547660501015	3223379243.3395348
1445.9729217920196	3178196137.5173817
1472.8827239075017	3132172166.407703
1500.2933220192183	3085291681.364416
1528.2140360258693	3037538742.5174823
1556.654359271062	2988897113.3531566
1585.6239617711371	2939856525.711703
1615.1326935030913	2909830911.739847
1645.1905877536624	2879246515.9829392
1675.8078645307671	2848092939.416877
1706.994934038408	2816359589.489952
1738.7624002162504	2784035676.52127
1771.1210643450886	2751110210.0321307
1804.0819287193829	2717571995.0091662
1837.6562003881704	2683409628.0978975
1871.8552949655793	2648611493.725476
1906.690840512252	2613165760.1512756
1942.1746814890264	2577060375.443954
1978.3188827841643	2540283063.3836846
2015.1357338155585	2511227651.957685
2052.6377527092523	2488931855.4012012
2090.83769055575	2466221130.277038
2129.748535745521	2443087754.693948
2169.3835183851843	2419523863.054975
2209.756114795903	2395521443.383063
2250.880052095462	2371072334.5969024
2292.7693128656488	2346168223.7360697
2335.438139906479	2320800643.1345325
2378.9010410788933	2294960967.5415564
2423.1727942376006	2268640411.189018
2468.2684522556924	2241830024.8041606
2514.2033481427966	2215093751.1025357
2560.9931002584594	2198849003.322735
2608.6536176225477	2182301938.0226126
2657.201105324507	2165446929.0216713
2706.652070033241	2148278245.435243
2757.0233256095826	2130790049.7259178
2808.3319988231724	2112976395.7187195
2860.595535175742	2094831226.579349
2913.8317048327885	2076348372.7547846
2968.058608665602	2057521549.8755782
3023.2946844057765	2038344356.6190932
3079.5587129142264	2018810272.5329897
3136.8698245668766	1998912655.818204
3195.2475057592137	1983113114.8930428
3254.711605531848	1970527127.2680109
3315.282342319423	1957706912.2716959
3376.9803108250912	1944648110.8928628
3439.8264890229248	1931346282.9983368
3503.8422452906757	1917796905.8233078
3569.0493456752297	1903995372.4335449
3635.4699612933177	1889936990.158985
3703.126675869927	1875616978.9981768
3772.0424934169973	1861030469.9930315
3842.240846055061	1846172503.573318
3913.745601980384	1831038027.8703623
3986.581073580439	1816002543.9802706
4060.7720257003652	1805425437.1929915
4136.343684063274	1794651488.6486435
4213.321743847289	1783677035.0886333
4291.732378422157	1772498345.0805027
4371.602248248502	1761111617.7492
4452.958509942656	1749512981.4847414
4535.828825510186	1737698492.6258247
4620.241371751313	1725664134.118937
4706.224849841282	1713405814.1525187
4793.808495089107	1700919364.765699
4883.02208687788	1688200540.431146
4973.895958790063	1675245016.6115437
5066.461008921268	1663966982.8469536
5160.7487103859075	1653838635.1989357
5256.791122018419	1643521797.2777896
5354.620899273607	1633012961.2474587
5454.271305329837	1622308553.9904618
5555.7762223988775	1611404935.8929942
5659.170163246243	1600298399.6074166
5764.488282925873	1588985168.7917213
5871.766390733255	1577461396.8255312
5981.040962380944	1565723165.5022118
6092.349152400711	1553766483.6966357
6205.7288067765	1541587286.0081573
6321.218475812449	1529436339.164078
6438.857427240419	1519374705.424472
6558.685659571435	1509125822.968925
6680.743915695614	1498686207.0669723
6805.073696735207	1488052308.136721
6931.7172761554075	1477220510.5379558
7060.717714137772	1466187131.3427832
7192.118872221193	1454948419.083392
7325.9654282152305	1443500552.4765205
7462.302891391108	1431839639.1241722
7601.17761795533	1419961714.190162
7742.63682681127	1407862739.0520303
7886.728615614156	1395538599.9278646
8033.501977124734	1384633201.7452147
8183.006815867389	1374577178.9241745
8335.293965098195	1364334011.8073418
8490.415204088747	1353900217.6075292
8648.423275731726	1343272248.7222853
8809.37190447399	1332446491.5276752
8973.31581458352	1321419265.1496058
9140.310748756232	1310186820.2122917
9310.413487069076	1298745337.5634272
9483.681866285928	1287090926.9756298
9660.174799522645	1275219625.8237271
9839.952296278227	1263127397.7374141
10023.075482838643	1251193794.8740642
10209.606623060476	1241748654.9085143
10399.609139541202	1232127739.28106
10593.147635183701	1222327776.776722
10790.287915161836	1212345435.3026562
10991.097009294961	1202177320.7552032
11195.643194838794	1191819975.8658555
11403.996019700331	1181269879.025754
11616.226326085018	1170523443.0882964
11832.40627458378	1159577014.149472
12052.609368708414	1148426870.3054957
12276.910479883603	1137069220.3873186
12505.385872903913	1125500202.6715934
12738.113231864785	1115803533.218177
12975.171686575868	1107124492.0270247
13216.641839466038	1098283932.4025142
13462.60579298911	1089278848.4591167
13713.147177539457	1080106178.3712647
13968.351179887397	1070762803.332293
14228.30457214352	1061245546.494015
14493.095741262152	1051551171.8865587
14762.81471909391	1041676383.3181006
15037.553212997384	1031617823.2541302
15317.404637020798	1021372071.6758453
15602.46414366368	1010935644.9173127
15892.828656229764	1000773590.0311341
16188.596901781992	993102411.7533205
16489.86944471065	985288471.5424608
16796.74872092653	977329112.5746884
17109.339072690134	969221628.5821934
17427.746784089173	960963262.933061
17752.08011717636	952551207.6939871
18082.44934877952	943982602.6755536
18418.96680799711	935254534.4597275
18761.746914391195	926364035.4092722
19110.90621689136	917308082.6587162
19466.563433422634	908083597.0865469
19828.839491270715	898687442.2682792
20197.857568198782	890978651.7780844
20573.743134329117	884083863.6520151
20956.623994804308	877060762.3457304
21346.630333242454	869906959.9291122
21743.8947560008	862620024.0322593
22148.552337263594	855197477.0184505
22560.74066496859	847636795.1417238
22980.599887588487	839935407.688776
23408.272761782944	832090696.104891
23843.904700937204	824099993.1036061
24287.643824604504	815960581.7598014
24739.641008868115	807669694.5859191
25200.049937640895	799655168.2433482
25669.02715491952	793540546.8104018
26146.73211801092	787312131.2321495
26633.327251749808	780967803.7801839
27128.978003724646	774505407.3148118
27633.85290053167	767922744.5516039
28148.123605075813	761217577.3142926
28671.9649749377	754387625.7737712
29205.555121827452	747430567.6729237
29749.075472144435	740344037.5370337
30302.71082866393	733125625.869501
30866.649433372746	725772878.332578
31441.083031472648	718283294.9128796
32026.206936576502	712166380.0902324
32622.220097116733	706629286.5312383
33229.325163989684	700989146.7189431
33847.72855945983	695244042.9450363
34477.64054734464	689392021.8123338
35119.275304507275	683431093.5705956
35772.850993678774	677359231.4399903
36438.58983763541	671174370.9219723
37116.71819475767	664874409.0973214
37807.46663599349	658457203.9111384
38511.07002325569	651920573.4445148
39227.76758927724	645262295.1726598
39957.803018952654	638873603.6217318
40701.42453219439	633954603.8206648
41458.88496832911	628944060.5963031
42230.44187206672	623840270.3099624
43016.357581068	618641497.6179516
43816.89931514195	613345974.8815411
44632.33926710398	607951901.5659411
45462.95469532399	602457443.6281039
46309.02801799737	596860732.8931288
47170.84690917022	591159866.4190613
48048.70439655134	585352905.8498757
48942.898961145314	579437876.7564083
49853.73463873893	573412767.9650341
50781.5211232767	568541399.8155625
51726.57387216025	564094891.923007
52689.21421350677	559565633.7619717
53669.76945540476	554952085.3358792
54668.57299720181	550252677.9885542
55685.96444286409	545465813.8708634
56722.28971644549	540589865.3974283
57777.90117970507	535623174.6932312
58853.15775191451	530564053.0299169
59948.42503189409	525410780.25160867
61064.07542232036	520161604.1900359
62200.48825634718	514814740.0687779
63358.04992658254	509725206.3727836
64537.15401646702	505781452.5697681
65738.20143409586	501764304.83742523
66961.60054853215	497672397.30224186
68207.76732865692	493504338.67156565
69477.1254846024	489258711.760553
70770.10661181889	484934073.01030755
72087.15033782135	480528951.99705696
73428.70447166757	476041850.9321921
74795.2251562183	471471244.1530025
76187.17702322999	466815577.6039367
77605.0333513357	462073268.3082033
79049.2762269642	457242703.829544
80520.3967082547	453375054.5596989
82018.89499202212	449813625.98377115
83545.28058382872	446185918.6160475
85100.07247122246	442490698.9969344
86683.79930019774	438726710.7119459
88296.99955494083	434892673.9645087
89940.22174092053	430987285.14081705
91614.0245713852	427009216.3665916
93318.97715733238	422957115.0555856
95055.6592010119	418829603.44969267
96824.66119303113	414625278.15049326
98626.5846131283	410342709.6420841
100462.04213468131	406298581.8563606
102331.6578330245	403142459.1632819
104236.06739764012	399927600.4898519
106175.9183482999	396652912.7494819
108151.87025522892	393317282.5130556
110164.59496336569	389919575.6303524
112214.77682079803	386458636.84442186
114303.11291144787	382933289.39878577
116430.31329208757	379342334.6373275
118597.10123376705	375684551.59673566
120804.21346773289	371958696.59136516
123052.40043592616	368163502.79036826
125342.42654613995	364297679.7869599
127675.07043192645	361232469.93224007
130051.12521734099	358384511.099819
132471.39878661174	355483551.2689296
134936.71405883064	352528604.0819718
137447.90926775365	349518664.82506275
140005.8382468096	346452710.08642346
142611.37071941298	343329697.4084072
145265.39259467812	340148564.9330542
147968.80626863963	336908231.04104614
150722.53093107554	333607593.9839457
153527.5028780421	330245531.50958943
156384.6758302248	326820900.48051
159295.0212572123	323612788.99171233
162259.5287078087	321090669.3048777
165279.2061464897	318521612.54151696
168355.08029612005	315904745.1946503
171488.19698705408	313239177.5011823
174679.62151272458	310524003.1393769
177930.43899185772	307758298.92069507
181241.75473742394	304941124.47590226
184614.69463245457	302071521.9353334
188050.40551285836	299148515.60320383
191550.05555735278	296171111.6258667
195114.83468466165	293138297.6538882
198745.9549580986	290049042.4978395
202444.65099768018	287623341.66075116
206212.18039991445	285348866.42235076
210049.82416539153	283032062.81274843
213958.88713434216	280672143.09375346
217940.6984302958	278268304.8672333
221996.61191199525	275819730.8022907
226128.00663372796	273325588.35735935
230336.28731421314	270785029.4971349
234622.88481422624	268197190.40423048
238989.25662310526	265561191.18547052
243436.8873543108	262876135.57271898
247967.289250216	260141110.6181353
252582.00269627848	257599619.57179803
257282.5967447932	255586460.85863912
262070.66964838552	253535836.9192771
266947.8494034318	251447050.51947808
271915.7943036019	249319391.44935885
276976.1935036891	247152136.28191105
282130.76759394706	244944548.1270256
287381.2691851069	242695876.38094318
292729.4835042813	240405356.47104174
298177.22900196735	238072209.59587088
303726.35797033116	235695642.46035445
309378.7571730137	233274847.00605896
315136.34848664823	230809000.13644597
321001.08955431683	228891636.3208896
326974.9744511768	227077022.21299842
333060.03436245886	225228637.82779223
339258.33827409917	223345854.69466367
345571.9936762143	221428032.64706057
352003.14727966755	219474519.60482314
358553.9857459817	217484651.35246733
365226.7364308176	215457751.31334737
372023.6681413066	213393130.3196103
378947.09190746717	211290086.37787193
385999.3617679763	209147904.43053278
393182.87557057705	206965856.11264807
400500.07578736113	204954635.80591193
407953.4503452449	203349192.9718109
415545.53347188793	201713872.57339144
423278.90655735444	200048118.58409813
431156.19903182285	198351364.62962577
439180.0892596086	196623033.79534802
447353.3054498463	194862538.4301586
455678.6265841069	193069279.9466639
464158.8833612772	191242648.6176582
472796.9591600391	189382023.36880702
481595.7910192351	187486771.56747842
490558.37063650455	185556248.8076387
499687.7453854889	183589798.69074816
508987.01935196744	182075676.7576906
518459.3543892913	180629120.41739082
528107.971193433	179155643.41745803
537936.1503980698	177654744.7598356
547947.2336900292	176125914.1228077
558144.6249454955	174568631.68748546
568531.7913873753	172982367.96106058
579112.2647641759	171366583.59677485
589889.6425508494	169720729.2105344
600867.5891719693	168044245.19411388
612049.837247669	166336561.5248844
623440.1888627864	164597097.57199755
635042.5168595962	163006886.61948824
646860.7661546321	161727510.1733154
658898.9550799957	160424324.31378558
671161.1767496273	159096885.94366533
683651.6004510239	157744743.71960527
696374.4730628222	156367437.89868057
709334.1204987989	154964500.18207163
722534.9491787221	153535453.55583817
735981.4475265756	152079812.12873
749678.1874966876	150597080.96697694
763629.8261282241	149086755.92600828
777841.1071286482	147548323.47903636
792316.8624866261	145981260.54245263
807062.014114949	144786491.60703608
822081.5755240541	143634080.3901423
837380.653526649	142460222.60441262
852964.4499741016	141264519.12555155
868838.2635251193	140046563.40149266
885007.4914473438	138805941.31416675
901477.6314524917	137542231.0386964
918254.2835656282	136255002.89997172
935343.1520292377	134943819.22655585
952750.04724273	133608234.20187175
970480.8877380306	132247793.71262074
988541.7021919574	130862035.19437765
1006938.6314760271	129605581.46059063
1025677.9307444209	128586629.99365537
1044765.9715608052	127548715.66653965
1064209.2440647245	126491485.57718909
1084014.359178331	125414580.2559817
1104188.0508541602	124317633.54350476
1124737.1783647507	123200272.46605662
1145668.7286348727	122062117.10883133
1166989.8186171474	120902780.48674431
1188707.6977119034	119721868.41285217
1210829.7502320395	118518979.36432567
1233363.4979137748	117293704.34592731
1256316.6024741214	116045626.75094858
1279696.8682159416	115103444.62396488
1303512.244681509	114185833.99001342
1327770.8293554292	113251146.46602722
1352480.870417874	112299064.24817695
1377650.769549055	111329263.6182499
1403289.084785873	110341414.83358264
1429404.533431761	109335182.01494436
1456005.9950206485	108310223.03233469
1483102.5143361029	107266189.38865575
1510703.3044866556	106202726.10121927
1538817.7500383463	105119471.58104908
1567455.410205595	104016057.50993629
1596626.022101425	103023873.80720492
1626339.5040481905	102212704.18030019
1656605.9589499151	101386438.54861332
1687435.6777273756	100544795.97292683
1718839.1428171457	99687490.28569628
1750827.0317357269	98814229.99375059
1783410.2207100063	97924718.17918155
1816599.7883753285	97018652.39838742
1850407.019542302	96095724.57924029
1884843.4090337954	95155620.91633718
1919920.6655932867	94198021.76430304
1955650.715865947	93222601.52910858
1992045.7084538713	92229028.55736333
2029118.018046678	91486416.87572983
2066880.2496290822	90756061.8793859
2105345.242766708	90012114.8522857
2144526.0759716653	89254322.84442429
2184436.0711494284	88482428.19835356
2225088.7981283693	87696168.46157706
2266498.079273693	86895276.29731235
2308677.994187172	86079479.39359401
2351642.884494346	85248500.37068492
2395407.3587208795	84402056.68676327
2439986.29725955	83539860.54185648
2485394.8574297987	82661618.77998514
2531648.478631358	81878483.72358093
2578762.8875937983	81232957.86540431
2626754.1037238385	80575418.66116679
2675638.4445520453	79905642.54045425
2725432.531281028	79223401.77216886
2776153.294436804	78528464.38709825
2827817.979625338	77820594.0990439
2880444.1533962977	77099550.22448032
2934049.7092157872	76365087.60072128
2988652.8735503824	75616956.50256087
3044272.212064306	74854902.55736464
3100926.6359319235	74078666.65858045
3158635.408267819	73287984.87763853
3217418.1506763715	72702922.11094026
3277294.849923382	72121796.00942943
3338285.8647317644	71529855.05228737
3400411.9327037027	70926897.97321072
3463694.1773717343	70312719.76029558
3528154.115380883	69687111.58633205
3593813.6638046256	69049860.7378001
3660695.147596906	68400750.54254486
3728821.30718283	67739560.29610607
3798215.306190736	67066065.18667546
3868900.7393279755	66380036.2186592
3940901.6404034477	65681240.13481621
4014242.490499326	65063343.62233685
4088948.226294856	64549783.08685087
4165044.248545185	64026665.10241398
4242556.430717777	63493811.80327513
4321511.127789762	62951042.013571136
4401935.185208879	62398171.18572516
4483855.948021182	61835011.337698825
4567301.270168747	61261370.989075586
4652299.523960189	60677055.09595619
4738879.609717651	60081864.984641
4827070.965603188	59475598.28407902
4916903.577628021	58858048.857059814
5008407.989848212	58229006.730123915
5101615.314749834	57768234.15825721
5196557.243827658	57305963.449858695
5293266.058360566	56835089.804918714
5391774.640387494	56355453.12132454
5492116.483887789	55866890.31743551
5594325.706169377	55369235.27663429
5698437.059469136	54862318.79084478
5804485.942768984	54345968.502999805
5912508.413831869	53820008.848438054
6022541.201461928	53284260.99520962
6134621.717992506	52738542.78327196
6248788.072006888	52182668.66255293
6365079.081295578	51695300.271866746
6483534.286054714	51286819.8363481
6604193.962330305	50870737.51041897
6727099.135712337	50446911.82160545
6852291.595284058	50015198.66460664
6979813.907830667	49575451.25229746
7109709.432312424	49127520.06581964
7242022.334607315	48671252.80374322
7376797.602527731	48206494.330283
7514081.061116962	47733086.62255026
7653919.388230155	47250868.7168234
7796360.130405221	46759676.653818816
7941451.71902934	46259343.42294235
8089243.486805938	45896568.3196681
8239785.684528511	45528918.21284633
8393129.498166373	45154426.07497871
8549327.066268368	44772964.57470339
8708431.497690724	44384404.010999896
8870496.889654404	43988612.26909003
9035578.34613892	43585454.77551688
9203731.99661823	43174794.452388644
9375015.015145289	42756491.67077073
9549485.639791965	42330404.203210175
9727203.192450536	41896387.175377
9908228.099003788	41454293.01680525
10092621.909870485	41069981.32624686
10280447.320933098	40745138.84170833
10471768.194855202	40414250.983258665
10666649.582795387	40077205.2454607
10865157.746525373	39733887.029131964
11067360.180959744	39384179.60237967
11273325.63710487	39027964.06091075
11483124.145435112	38665119.28760288
11696827.039703846	38295521.91132355
11914506.981197748	37919046.26498246
12136237.983442418	37535564.34280334
12362095.43736769	37144945.75680076
12592156.13694151	36748522.49099036
12826498.3052806	36461513.499871776
13065201.621247198	36169163.222592175
13308347.24654076	35871372.256907225
13556017.853293689	35568039.35067999
13808297.652180923	35259061.36745398
14065272.421052365	34944333.25138567
14327029.534098294	34623747.99152446
14593657.991557576	34297196.5854277
14865248.449978571	33964568.00209884
15141893.25304352	33625749.1442355
15423686.462966274	33280624.809775256
15710723.89247449	32929077.652725745
16003103.137387017	32626099.138251293
16300923.60979741	32367806.25263659
16604286.571875297	32104706.492470518
16913295.17029647	31836710.400999762
17228054.471313924	31563726.856665596
17548671.49648152	31285663.042121567
17875255.259042356	31002424.412674673
18207916.800994623	30713914.664139036
18546769.230846975	30420035.700091492
18891927.762076642	30120687.59851776
19243509.75230332	29815768.57783784
19601634.743191857	29505174.962299302
19966424.501097932	29192294.967558224
20338003.0584698	28964098.38942827
20716496.75602067	28731655.034150306
21102034.285685964	28494885.86847897
21494746.734379806	28253710.388346825
