# Frequency (Hz)	Real Part (Ohm/m)
1000.0	3248968.158610276
1018.6101701559753	3258177.779619108
1037.566678745186	3267558.7932419865
1056.875971184804	3277114.3891246216
1076.5446128423157	3286847.816272576
1096.5792912678098	3296762.3841559533
1116.9868184678226	3306861.463834663
1137.7741332214914	3317148.489104612
1158.9483034398106	3327626.9576652343
1180.5165285688054	3338300.4323087437
1202.4861420374123	3349172.542131525
1224.8646137509306	3360246.983768061
1247.6595526308697	3371527.522647837
1270.8787092020582	3381304.9988563405
1294.529978227916	3389619.9098497573
1318.6214013947485	3398089.562751594
1343.1611700460153	3406716.837335095
1368.1576279674719	3415504.6669665775
1393.619274224142	3424456.039602803
1419.5547660501015	3433573.99880692
1445.9729217920194	3442861.6447832994
1472.882723907502	3452322.135431648
1500.2933220192183	3461958.6874207216
1528.2140360258693	3471774.5772820283
1556.654359271062	3481773.1425238866
1585.6239617711371	3491878.5743049704
1615.132693503091	3499054.296602627
1645.1905877536624	3506363.560313233
1675.807864530767	3513808.8506652093
1706.9949340384078	3521392.699137497
1738.7624002162504	3529117.6843202906
1771.1210643450886	3536986.432791789
1804.0819287193826	3545001.6200112547
1837.6562003881704	3553165.9712287076
1871.8552949655793	3561482.2624115315
1906.690840512252	3569953.321188334
1942.1746814890264	3578582.027810374
1978.3188827841643	3587371.3161308747
2015.1357338155585	3594719.3001077743
2052.6377527092523	3600810.304519743
2090.8376905557498	3607014.6635602387
2129.748535745521	3613334.486778187
2169.3835183851843	3619771.922981577
2209.756114795903	3626329.160968081
2250.880052095462	3633008.4302692655
2292.7693128656488	3639812.0019086646
2335.438139906479	3646742.1891739396
2378.9010410788933	3653801.3484034347
2423.1727942376006	3660991.879787349
2468.2684522556924	3668316.228183829
2514.2033481427966	3675639.9454789907
2560.9931002584594	3680473.997111023
2608.6536176225477	3685398.01126647
2657.2011053245064	3690413.6621632
2706.652070033241	3695522.6551765604
2757.0233256095826	3700726.727419225
2808.3319988231724	3706027.648331831
2860.5955351757416	3711427.2202846026
2913.831704832789	3716927.2791901864
2968.0586086656026	3722529.69512787
3023.2946844057765	3728236.3729794384
3079.5587129142264	3734049.2530768504
3136.8698245668766	3739970.3118619714
3195.2475057592133	3744606.130780674
3254.711605531848	3748232.8366158903
3315.282342319423	3751927.0360638057
3376.9803108250912	3755689.9851920367
3439.8264890229243	3759522.9634438325
3503.8422452906757	3763427.2740730993
3569.0493456752292	3767404.244587517
3635.4699612933177	3771455.2271999135
3703.126675869927	3775581.599288026
3772.0424934169973	3779784.763862826
3842.240846055061	3784066.150045555
3913.745601980384	3788427.213553648
3986.581073580439	3792706.992149027
4060.7720257003657	3795044.346424707
4136.343684063274	3797425.199261172
4213.321743847289	3799850.3601740403
4291.732378422157	3802320.6537441527
4371.602248248501	3804836.9198979395
4452.958509942655	3807400.014193007
4535.828825510186	3810010.8081090306
4620.241371751313	3812670.1893440736
4706.224849841281	3815379.06211641
4793.808495089106	3818138.347471971
4883.02208687788	3820948.9835975077
4973.895958790063	3823811.926139588
5066.461008921268	3825646.501043131
5160.7487103859075	3826748.7306386624
5256.791122018419	3827871.4729145165
5354.620899273607	3829015.1096151657
5454.271305329836	3830180.029589411
5555.7762223988775	3831366.6289225942
5659.170163246242	3832575.3110712753
5764.488282925873	3833806.4870004086
5871.766390733255	3835060.575323073
5981.040962380945	3836338.002442816
6092.349152400711	3837639.2026986163
6205.7288067765	3838964.6185125858
6321.218475812449	3840167.103192357
6438.8574272404185	3840051.271931348
6558.685659571435	3839933.2850308632
6680.743915695614	3839813.1023740834
6805.073696735206	3839690.683097611
6931.717276155407	3839565.985577574
7060.717714137772	3839438.9674154706
7192.118872221193	3839309.585423758
7325.96542821523	3839177.7956111645
7462.302891391108	3839043.5531677324
7601.17761795533	3838906.812449588
7742.636826811269	3838767.52696341
7886.728615614156	3838625.649350635
8033.501977124735	3837801.1870386456
8183.00681586739	3836527.2295224573
8335.293965098195	3835229.5634401226
8490.415204088747	3833907.7475711885
8648.423275731726	3832561.3324840195
8809.37190447399	3831189.8603829774
8973.31581458352	3829792.8649527705
9140.310748756232	3828369.8711999003
9310.413487069076	3826920.3952911585
9483.681866285926	3825443.944389118
9660.174799522645	3823940.0164845632
9839.952296278227	3822408.1002258025
10023.075482838643	3820756.344540323
10209.606623060476	3818428.6096889037
10399.609139541202	3816057.555295821
10593.1476351837	3813642.3751770337
10790.287915161836	3811182.248145278
10991.097009294961	3808676.337730857
11195.643194838794	3806123.7918972275
11403.99601970033	3803523.742751303
11616.22632608502	3800875.3062483603
11832.40627458378	3798177.581891449
12052.609368708414	3795429.652425222
12276.910479883603	3792630.5835240525
12505.385872903913	3789779.4234743533
12738.113231864783	3786641.6657687663
12975.171686575868	3783311.488851392
13216.641839466038	3779919.336774938
13462.60579298911	3776464.056171144
13713.147177539455	3772944.4722073777
13968.351179887397	3769359.388187167
14228.30457214352	3765707.5851433165
14493.09574126215	3761987.8214234454
14762.81471909391	3758198.832267805
15037.553212997384	3754339.329379261
15317.404637020798	3750408.0004852433
15602.46414366368	3746403.5088915685
15892.828656229764	3742321.7707271767
16188.596901781993	3738148.5013238685
16489.86944471065	3733897.566666856
16796.74872092653	3729567.521392557
17109.339072690134	3725156.893238919
17427.746784089173	3720664.182544848
17752.08011717636	3716087.861740297
18082.44934877952	3711426.3748268858
18418.96680799711	3706678.136848837
18761.746914391195	3701841.533354075
19110.90621689136	3696914.9198452984
19466.56343342263	3691896.6212208313
19828.83949127071	3686784.9312050696
20197.857568198782	3681777.639381446
20573.743134329114	3676779.7480791854
20956.623994804308	3671688.845169368
21346.630333242454	3666503.1996901506
21743.8947560008	3661221.048466198
22148.55233726359	3655840.5955091775
22560.74066496859	3650360.0114071104
22980.599887588487	3644777.43270235
23408.272761782944	3639090.961257984
23843.904700937208	3633298.663612452
24287.643824604504	3627398.5703221434
24739.64100886812	3621388.675291765
25200.049937640895	3615369.0246894364
25669.027154919517	3609723.0889608273
26146.732118010917	3603972.081407619
26633.327251749808	3598114.046625278
27128.978003724646	3592146.9928188575
27633.852900531667	3586068.8911257703
28148.123605075813	3579877.6749259476
28671.964974937695	3573571.2391391755
29205.55512182745	3567147.4395093336
29749.075472144435	3560604.0918753315
30302.71082866393	3553938.971428473
30866.649433372742	3547149.8119559865
31441.08303147265	3540234.305070501
32026.206936576502	3533763.8807447804
32622.220097116733	3527436.264679357
33229.325163989684	3520990.890602276
33847.72855945983	3514425.5670169
34477.640547344636	3507738.061642472
35119.275304507275	3500926.100655106
35772.850993678774	3493987.36791467
36438.58983763541	3486919.504177268
37116.71819475767	3479720.1062930725
37807.466635993485	3472386.7263892316
38511.070023255685	3464916.871037563
39227.76758927723	3457308.0004067584
39957.803018952654	3449766.3381717918
40701.42453219439	3442927.3110781256
41458.88496832911	3435961.0085265455
42230.441872066716	3428865.0618991237
43016.35758106799	3421637.0584975462
43816.89931514194	3414274.5407227776
44632.33926710397	3406775.005239445
45462.95469532399	3399135.9021246773
46309.02801799736	3391354.634001103
47170.84690917023	3383428.5551537205
48048.704396551344	3375354.970630319
48942.89896114532	3367131.1353251673
49853.73463873894	3358754.2530456525
50781.5211232767	3351101.032557973
51726.57387216024	3343663.5784467408
52689.21421350677	3336087.7120489716
53669.76945540476	3328370.8574884613
54668.57299720181	3320510.3909515115
55685.96444286408	3312503.6397948023
56722.28971644549	3304347.881636671
57777.90117970507	3296040.343431466
58853.1577519145	3287578.2005266845
59948.42503189408	3278958.575702561
61064.07542232036	3270178.5381937795
62200.48825634718	3261235.102692984
63358.04992658254	3252438.574685742
64537.15401646702	3244567.6508402904
65738.20143409586	3236550.247762789
66961.60054853215	3228383.6394498073
68207.76732865692	3220065.0491665234
69477.1254846024	3211591.6485026106
70770.10661181889	3202960.5564105413
72087.15033782135	3194168.8382260078
73428.70447166759	3185213.504670096
74795.22515621828	3176091.510832906
76187.17702322999	3166799.7551382426
77605.0333513357	3157335.0782890553
79049.2762269642	3147694.262193233
80520.39670825469	3139018.165820151
82018.8949920221	3130591.6101674307
83545.28058382872	3122008.2348801848
85100.07247122246	3113265.1215183316
86683.79930019773	3104359.2973291213
88296.99955494082	3095287.73423637
89940.22174092053	3086047.347810881
91614.0245713852	3076634.996221708
93318.9771573324	3067047.4791678926
95055.65920101192	3057281.536790332
96824.66119303115	3047333.848563392
98626.5846131283	3037201.032165889
100462.04213468132	3027302.482924278
102331.65783302448	3018500.000136237
104236.06739764012	3009533.701645714
106175.9183482999	3000400.538814614
108151.87025522892	2991097.406269163
110164.59496336569	2981621.1408440596
112214.77682079801	2971968.5205069524
114303.11291144785	2962136.263262919
116430.31329208757	2952121.0260385578
118597.10123376705	2941919.403545297
120804.21346773289	2931527.9271215717
123052.40043592616	2920943.063553428
125342.42654613995	2910161.213873204
127675.07043192645	2900588.12309812
130051.12521734099	2891279.9349202616
132471.39878661174	2881798.51977657
134936.71405883064	2872140.653883735
137447.90926775365	2862303.0534632904
140005.8382468096	2852282.3736250955
142611.37071941295	2842075.207230033
145265.39259467812	2831678.0837315465
147968.80626863963	2821087.4679956227
150722.53093107554	2810299.7590987957
153527.5028780421	2799311.289103806
156384.67583022476	2788118.321812455
159295.0212572123	2777265.036347557
162259.5287078087	2767667.846380656
165279.2061464897	2757892.05107545
168355.08029612005	2747934.326556207
171488.19698705408	2737791.2870892924
174679.62151272455	2727459.483932
177930.43899185772	2716935.404159934
181241.75473742394	2706215.469472572
184614.69463245454	2695296.03497662
188050.40551285836	2684173.3879466886
191550.0555573528	2672843.746562947
195114.83468466165	2661303.258625248
198745.9549580986	2649548.0002433434
202444.65099768018	2639274.256142312
206212.18039991445	2629272.3674767003
210049.8241653915	2619084.341961143
213958.88713434213	2608706.715557187
217940.6984302958	2598135.959760037
221996.61191199525	2587368.480398827
226128.00663372793	2576400.616414552
230336.2873142131	2565228.638615283
234622.88481422624	2553848.748408192
238989.25662310526	2542257.076507988
243436.8873543108	2530449.6816213313
247967.289250216	2518422.5491067334
252582.00269627848	2506863.2375926278
257282.59674479323	2496717.607338614
262070.66964838552	2486383.165179231
266947.8494034318	2475856.397292798
271915.7943036019	2465133.7244648044
276976.1935036891	2454211.5008709547
282130.76759394706	2443086.0128375418
287381.2691851069	2431753.477578758
292729.4835042813	2420210.0419105124
298177.22900196735	2408451.7809402943
303726.3579703311	2396474.696732682
309378.75717301364	2384274.7169499956
315136.34848664823	2371847.6934676506
321001.08955431683	2361193.6400919496
326974.97445117676	2350808.109468208
333060.03436245886	2340229.3023523996
339258.33827409917	2329453.621836119
345571.9936762143	2318477.404071882
352003.1472796675	2307296.917027387
358553.9857459817	2295908.359216564
365226.7364308175	2284307.858407052
372023.6681413066	2272491.4703035797
378947.09190746717	2260455.1772068716
385999.36176797637	2248194.8866475904
393182.87557057705	2235706.4299948355
400500.07578736113	2223827.664338609
407953.45034524484	2213493.0252724346
415545.53347188793	2202966.0568147358
423278.90655735444	2192243.1796828145
431156.19903182285	2181320.7479829052
439180.0892596086	2170195.047970544
447353.3054498463	2158862.2967878496
455678.6265841068	2147318.6411773073
464158.8833612772	2135560.156171635
472796.9591600391	2123582.8437592266
481595.79101923504	2111382.631524814
490558.37063650455	2098955.3712647795
499687.7453854889	2086296.8375767316
508987.0193519675	2075678.423255659
518459.3543892913	2065308.0371740223
528107.971193433	2054744.656442825
537936.1503980698	2043984.6893987968
547947.2336900292	2033024.4775372052
558144.6249454955	2021860.2942679266
568531.7913873753	2010488.3436483522
579112.2647641759	1998904.759092743
589889.6425508494	1987105.6020575375
600867.5891719692	1975086.860702209
612049.837247669	1962844.4485252001
623440.1888627863	1950374.202974454
635042.5168595961	1938648.2359597224
646860.7661546321	1928534.073593932
658898.9550799957	1918231.684945528
671161.1767496272	1907737.5670913667
683651.6004510238	1897048.1519182997
696374.4730628222	1886159.804909996
709334.1204987989	1875068.8239111498
722534.9491787221	1863771.437868718
735981.4475265755	1852263.8055497212
749678.1874966878	1840542.014235172
763629.8261282243	1828602.0783897277
777841.1071286482	1816439.9383065489
792316.8624866261	1804051.4587269598
807062.0141149492	1793894.052756403
822081.575524054	1783943.679539274
837380.6535266489	1773808.1281834594
852964.4499741016	1763483.952492288
868838.2635251193	1752967.6421347836
885007.4914473438	1742255.6214521131
901477.6314524917	1731344.2482418239
918254.2835656281	1720229.8125194565
935343.1520292377	1708908.5352571078
952750.0472427299	1697376.5670985228
970480.8877380306	1685629.9870502742
988541.7021919573	1673664.8011485774
1006938.6314760271	1662548.1346423645
1025677.9307444209	1653026.4500295497
1044765.9715608053	1643327.5652459175
1064209.2440647245	1633448.1825661408
1084014.359178331	1623384.9428936567
1104188.0508541602	1613134.4246185475
1124737.1783647507	1602693.1424541518
1145668.7286348727	1592057.546252029
1166989.8186171474	1581224.019794875
1188707.6977119034	1570188.8795669642
1210829.7502320393	1558948.3735017178
1233363.4979137746	1547498.6797059567
1256316.6024741214	1535835.9051604222
1279696.8682159416	1526485.3373142676
1303512.2446815087	1517284.3290778338
1327770.829355429	1507912.088512514
1352480.8704178738	1498365.4289555303
1377650.769549055	1488641.104439769
1403289.084785873	1478735.8085901185
1429404.533431761	1468646.173499261
1456005.9950206485	1458368.7685825506
1483102.514336103	1447900.0994115784
1510703.3044866556	1437236.6065260265
1538817.7500383465	1426374.6642234193
1567455.410205595	1415310.5793263353
1596626.022101425	1405154.2150845856
1626339.5040481905	1396494.7530114865
1656605.9589499151	1387674.1368757472
1687435.6777273756	1378689.367572842
1718839.1428171454	1369537.3901843976
1750827.0317357269	1360215.0929394893
1783410.220710006	1350719.3061566113
1816599.7883753285	1341046.8011659363
1850407.019542302	1331194.2892115517
1884843.4090337954	1321158.4203332323
1919920.6655932867	1310935.7822274233
1955650.715865947	1300522.8990870242
1992045.7084538713	1289916.230419566
2029118.0180466783	1281589.7568760898
2066880.2496290822	1273348.1003560054
2105345.242766708	1264953.0652057142
2144526.0759716653	1256401.797022813
2184436.0711494284	1247691.3882839766
2225088.7981283693	1238818.877356383
2266498.079273693	1229781.2474907164
2308677.994187172	1220575.425795442
2351642.884494346	1211198.2821919953
2395407.358720879	1201646.6283505086
2439986.29725955	1191917.2166057627
2485394.857429798	1182006.738852929
2531648.478631358	1173015.7972405478
2578762.8875937983	1165364.9786982553
2626754.1037238385	1157571.777121056
2675638.4445520453	1149633.5427364467
2725432.531281028	1141547.5764592013
2776153.2944368036	1133311.1289736605
2827817.979625338	1124921.3997989346
2880444.1533962977	1116375.536336703
2934049.709215787	1107670.6329013095
2988652.873550383	1098803.7297317928
3044272.2120643063	1089771.8119855337
3100926.6359319235	1080571.8087131842
3158635.408267819	1071200.591814498
3217418.1506763715	1063985.3714211176
3277294.849923382	1056792.671332023
3338285.8647317644	1049466.1138703888
3400411.9327037027	1042003.2079277379
3463694.1773717343	1034401.4160356342
3528154.1153808828	1026658.1535029294
3593813.6638046256	1018770.7875369281
3660695.147596906	1010736.6363482164
3728821.30718283	1002552.9682388258
3798215.306190736	994217.0006734174
3868900.7393279755	985725.8993332032
3940901.6404034477	977076.7771522357
4014242.490499326	969318.8467465466
4088948.226294856	962714.4182294307
4165044.248545185	955987.0801738268
4242556.430717777	949134.5452123121
4321511.127789762	942154.4834091639
4401935.1852088785	935044.521468159
4483855.948021181	927802.2419256313
4567301.270168747	920425.1823284981
4652299.523960189	912910.8343970126
4738879.609717651	905256.6431719105
4827070.965603188	897460.0061457024
4916903.577628021	889518.272377794
5008407.989848212	881428.7415931291
5101615.314749833	875310.0641602565
5196557.243827657	869160.9336207493
5293266.058360566	862897.3667155898
5391774.640387494	856517.2337645431
5492116.483887789	850018.3654536585
5594325.706169377	843398.5520976878
5698437.0594691355	836655.5428887616
5804485.942768984	829787.0451310931
5912508.413831869	822790.7234614402
6022541.201461928	815664.1990550474
6134621.717992506	808405.0488168319
6248788.072006888	801010.8045574954
6365079.081295578	794450.7207820383
6483534.286054714	788852.5615313562
6604193.962330305	783150.2195844573
6727099.135712336	777341.7560836398
6852291.595284057	771425.1960887272
6979813.907830667	765398.5279055707
7109709.432312423	759259.7024020533
7242022.334607315	753006.6323113563
7376797.60252773	746637.1915222746
7514081.061116962	740149.2143563101
7653919.388230155	733540.4948313177
7796360.130405221	726808.785911454
7941451.71902934	719951.7987431495
8089243.486805938	714849.5664356808
8239785.684528512	709676.4285147097
8393129.498166373	704407.0176167882
8549327.066268368	699039.5420854357
8708431.497690724	693572.1769211359
8870496.889654402	688003.063160824
9035578.34613892	682330.3072458148
9203731.99661823	676551.980377973
9375015.01514529	670666.1178639047
9549485.639791967	664670.718446935
9727203.192450536	658563.7436266623
9908228.099003786	652343.1169658459
10092621.909870483	646882.4192528664
10280447.320933098	642203.9037571306
10471768.194855202	637438.3202919416
10666649.582795387	632584.0485075732
10865157.746525371	627639.437899314
11067360.180959744	622602.8072462797
11273325.63710487	617472.4440397802
11483124.14543511	612246.6039010457
11696827.039703846	606923.5099881213
11914506.981197748	601501.3523917213
12136237.983442418	595978.2875198391
12362095.437367693	590352.4374709096
12592156.13694151	584641.9205981451
12826498.3052806	580422.2642129889
13065201.621247198	576124.0793045055
13308347.24654076	571745.9044435124
13556017.853293689	567286.2510033844
13808297.652180923	562743.6026538988
14065272.421052363	558116.4148456707
14327029.534098294	553403.1142849877
14593657.991557576	548602.0983988735
14865248.449978571	543711.7347901979
15141893.25304352	538730.3606826401
15423686.462966273	533656.2823553304
15710723.892474487	528487.7745669644
16003103.137387017	523997.16690703714
16300923.609797413	520129.8388159613
16604286.571875297	516190.5390910617
16913295.17029647	512177.9283279862
17228054.471313924	508090.64219584025
17548671.49648152	503927.29097329837
17875255.259042352	499686.45907608647
18207916.800994623	495366.7045756644
18546769.230846975	490966.55870895763
18891927.762076646	486484.5253789602
19243509.75230332	481919.0806460463
19601634.743191857	477268.67220981565
19966424.501097932	472581.96548237733
20338003.0584698	469109.6583954029
20716496.75602067	465572.731082706
21102034.285685964	461969.9809508903
21494746.734379806	458300.1830260923
