# Frequency (Hz)	Real Part (Ohm/m)
1000.0	9634791.122217981
1018.6101701559753	9675880.512631325
1037.566678745186	9717734.58359187
1056.875971184804	9760367.565934708
1076.5446128423157	9803793.955333205
1096.5792912678098	9848028.517227666
1116.9868184678226	9893086.29184576
1137.7741332214914	9938982.599316346
1158.9483034398106	9985733.044878488
1180.5165285688054	10033353.524187412
1202.4861420374123	10081860.228719184
1224.8646137509306	10131269.651275992
1247.6595526308697	10181598.5915939
1270.8787092020582	10225365.782827562
1294.529978227916	10262748.825536607
1318.6214013947485	10300827.573031412
1343.1611700460153	10339614.972496428
1368.1576279674719	10379124.212065395
1393.619274224142	10419368.72530547
1419.5547660501015	10460362.195784789
1445.9729217920194	10502118.561725013
1472.882723907502	10544652.020740477
1500.2933220192183	10587977.034665544
1528.2140360258693	10632108.334471766
1556.654359271062	10677060.925276587
1585.6239617711371	10722491.444101369
1615.132693503091	10754650.492437363
1645.1905877536624	10787408.026134938
1675.807864530767	10820775.18310852
1706.9949340384078	10854763.308550999
1738.7624002162504	10889383.958791245
1771.1210643450886	10924648.905223373
1804.0819287193826	10960570.13830915
1837.6562003881704	10997159.871654855
1871.8552949655793	11034430.546164094
1906.690840512252	11072394.834267775
1942.1746814890264	11111065.644232914
1978.3188827841643	11150456.124551574
2015.1357338155585	11183156.144004613
2052.6377527092523	11210017.878996855
2090.8376905557498	11237379.515447984
2129.748535745521	11265250.356609218
2169.3835183851843	11293639.87886685
2209.756114795903	11322557.734964345
2250.880052095462	11352013.757284358
2292.7693128656488	11382017.961191865
2335.438139906479	11412580.548439486
2378.9010410788933	11443711.910636192
2423.1727942376006	11475422.632780569
2468.2684522556924	11507723.496859819
2514.2033481427966	11539986.870038614
2560.9931002584594	11560604.443688521
2608.6536176225477	11581605.713892257
2657.2011053245064	11602997.821307976
2706.652070033241	11624788.039482694
2757.0233256095826	11646983.77732538
2808.3319988231724	11669592.581626061
2860.5955351757416	11692622.139621794
2913.831704832789	11716080.281610448
2968.0586086656026	11739974.983613053
3023.2946844057765	11764314.370085755
3079.5587129142264	11789106.716682201
3136.8698245668766	11814360.453067377
3195.2475057592133	11833613.493092274
3254.711605531848	11848145.484846327
3315.282342319423	11862947.91943962
3376.9803108250912	11878025.829859424
3439.8264890229243	11893384.342757734
3503.8422452906757	11909028.680194426
3569.0493456752292	11924964.161412792
3635.4699612933177	11941196.204648146
3703.126675869927	11957730.328970095
3772.0424934169973	11974572.156159053
3842.240846055061	11991727.412617737
3913.745601980384	12009201.931318182
3986.581073580439	12026263.76923719
4060.7720257003657	12034458.144844174
4136.343684063274	12042805.019175522
4213.321743847289	12051307.230258448
4291.732378422157	12059967.668936329
4371.602248248501	12068789.279851628
4452.958509942655	12077775.062447114
4535.828825510186	12086928.071985684
4620.241371751313	12096251.420589209
4706.224849841281	12105748.278296668
4793.808495089106	12115421.87414201
4883.02208687788	12125275.497252056
4973.895958790063	12135312.49796483
5066.461008921268	12140806.500602657
5160.7487103859075	12143051.081129055
5256.791122018419	12145337.433680976
5354.620899273607	12147666.335642925
5454.271305329836	12150038.578866662
5555.7762223988775	12152454.969940446
5659.170163246242	12154916.330463277
5764.488282925873	12157423.497324253
5871.766390733255	12159977.322987117
5981.040962380945	12162578.675780121
6092.349152400711	12165228.440191237
6205.7288067765	12167927.517168913
6321.218475812449	12170070.148291016
6438.8574272404185	12166741.93662669
6558.685659571435	12163351.786376977
6680.743915695614	12159898.544854267
6805.073696735206	12156381.037919223
6931.717276155407	12152798.069581598
7060.717714137772	12149148.421593545
7192.118872221193	12145430.853035426
7325.96542821523	12141644.09989387
7462.302891391108	12137786.874632014
7601.17761795533	12133857.865751704
7742.636826811269	12129855.737347588
7886.728615614156	12125779.128652887
8033.501977124735	12119108.155712146
8183.00681586739	12110704.94666779
8335.293965098195	12102145.352473265
8490.415204088747	12093426.462774307
8648.423275731726	12084545.313054483
8809.37190447399	12075498.883627195
8973.31581458352	12066284.098608963
9140.310748756232	12056897.824873587
9310.413487069076	12047336.870986866
9483.681866285926	12037597.986121459
9660.174799522645	12027677.858951574
9839.952296278227	12017573.116527095
10023.075482838643	12007007.582469339
10209.606623060476	11994318.533717835
10399.609139541202	11981393.33960995
10593.1476351837	11968227.605440423
10790.287915161836	11954816.854717769
10991.097009294961	11941156.527642246
11195.643194838794	11927241.979555463
11403.99601970033	11913068.47936114
11616.22632608502	11898631.207916496
11832.40627458378	11883925.25639368
12052.609368708414	11868945.624610716
12276.910479883603	11853687.219331399
12505.385872903913	11838144.852533527
12738.113231864783	11822050.751979263
12975.171686575868	11805506.49796694
13216.641839466038	11788654.35257234
13462.60579298911	11771488.585884456
13713.147177539455	11754003.361357655
13968.351179887397	11736192.73382719
14228.30457214352	11718050.647487802
14493.09574126215	11699570.933834655
14762.81471909391	11680747.309565986
15037.553212997384	11661573.374446724
15317.404637020798	11642042.609132336
15602.46414366368	11622148.372952167
15892.828656229764	11602059.043311423
16188.596901781993	11582597.518946348
16489.86944471065	11562773.81230135
16796.74872092653	11542581.183102565
17109.339072690134	11522012.765638495
17427.746784089173	11501061.566425577
17752.08011717636	11479720.461830337
18082.44934877952	11457982.195647262
18418.96680799711	11435839.376631625
18761.746914391195	11413284.475986373
19110.90621689136	11390309.824802265
19466.56343342263	11366907.611450339
19828.83949127071	11343069.878925916
20197.857568198782	11320464.837087633
20573.743134329114	11298300.988499299
20956.623994804308	11275724.66691742
21346.630333242454	11252728.19614941
21743.8947560008	11229303.757147418
22148.55233726359	11205443.385349797
22560.74066496859	11181138.967973033
22980.599887588487	11156382.241253344
23408.272761782944	11131164.7876369
23843.904700937208	11105478.032917751
24287.643824604504	11079313.243322525
24739.64100886812	11052661.522540836
25200.049937640895	11026150.033069577
25669.027154919517	11002172.311406102
26146.732118010917	10977748.360262517
26633.327251749808	10952869.875232268
27128.978003724646	10927528.397362385
27633.852900531667	10901715.310277341
28148.123605075813	10875421.837249387
28671.964974937695	10848639.038214397
29205.55512182745	10821357.80673211
29749.075472144435	10793568.866889872
30302.71082866393	10765262.77014872
30866.649433372742	10736429.892130757
31441.08303147265	10707060.4293468
32026.206936576502	10680274.726158721
32622.220097116733	10654426.585197642
33229.325163989684	10628097.405935062
33847.72855945983	10601278.236166336
34477.640547344636	10573959.957084777
35119.275304507275	10546133.28018114
35772.850993678774	10517788.744085446
36438.58983763541	10488916.711350026
37116.71819475767	10459507.365172649
37807.466635993485	10429550.706058733
38511.070023255685	10399036.548421403
39227.76758927723	10367954.517118277
39957.803018952654	10337341.774744056
40701.42453219439	10310389.101999123
41458.88496832911	10282934.835428253
42230.441872066716	10254969.640284993
43016.35758106799	10226484.008101668
43816.89931514194	10197468.253456414
44632.33926710397	10167912.510680007
45462.95469532399	10137806.730501443
46309.02801799736	10107140.67663108
47170.84690917023	10075903.922280172
48048.704396551344	10044085.846615681
48942.89896114532	10011675.631149035
49853.73463873894	9978662.25605776
50781.5211232767	9949182.146958686
51726.57387216024	9920842.512870166
52689.21421350677	9891975.473369105
53669.76945540476	9862571.21335103
54668.57299720181	9832619.735050706
55685.96444286408	9802110.854642792
56722.28971644549	9771034.198779214
57777.90117970507	9739379.201062141
58853.1577519145	9707135.098451262
59948.42503189408	9674290.927604271
61064.07542232036	9640835.521149186
62200.48825634718	9606757.50388733
63358.04992658254	9573449.714849386
64537.15401646702	9544404.371690072
65738.20143409586	9514818.489752322
66961.60054853215	9484682.009517496
68207.76732865692	9453984.684257597
69477.1254846024	9422716.076551279
70770.10661181889	9390865.554735009
72087.15033782135	9358422.289288178
73428.70447166759	9325375.249150964
74795.22515621828	9291713.197973646
76187.17702322999	9257424.69029612
77605.0333513357	9222498.067656323
79049.2762269642	9186921.454626223
80520.39670825469	9155587.336730849
82018.8949920221	9125431.941542195
83545.28058382872	9094715.349317966
85100.07247122246	9063427.11608583
86683.79930019773	9031556.603509363
88296.99955494082	8999092.97527089
89940.22174092053	8966025.193387015
91614.0245713852	8932342.014455605
93318.9771573324	8898031.985832887
95055.65920101192	8863083.441739446
96824.66119303115	8827484.499293718
98626.5846131283	8791223.054471701
100462.04213468132	8756026.322735157
102331.65783302448	8725441.581358032
104236.06739764012	8694287.652739694
106175.9183482999	8662553.94420875
108151.87025522892	8630229.665962355
110164.59496336569	8597303.827397635
112214.77682079801	8563765.233374692
114303.11291144785	8529602.480410192
116430.31329208757	8494803.952800026
118597.10123376705	8459357.818669854
120804.21346773289	8423252.025952153
123052.40043592616	8386474.298288358
125342.42654613995	8349012.130854788
127675.07043192645	8316427.166433242
130051.12521734099	8284988.1406728495
132471.39878661174	8252964.029293525
134936.71405883064	8220343.943752334
137447.90926775365	8187116.792868723
140005.8382468096	8153271.279053368
142611.37071941295	8118795.894466888
145265.39259467812	8083678.917107065
147968.80626863963	8047908.406823213
150722.53093107554	8011472.201256412
153527.5028780421	7974357.911704172
156384.67583022476	7936552.918908146
159295.0212572123	7900129.986021487
162259.5287078087	7868578.622340397
165279.2061464897	7836440.082412546
168355.08029612005	7803703.43878808
171488.19698705408	7770357.560655419
174679.62151272455	7736391.110056713
177930.43899185772	7701792.538032771
181241.75473742394	7666550.080696307
184614.69463245454	7630651.755232103
188050.40551285836	7594085.355822687
191550.0555573528	7556838.449498275
195114.83468466165	7518898.371909383
198745.9549580986	7480252.223020827
202444.65099768018	7447118.7443873305
206212.18039991445	7415065.825219995
210049.8241653915	7382416.395772967
213958.88713434213	7349159.35488843
217940.6984302958	7315283.394814146
221996.61191199525	7280776.997358688
226128.00663372793	7245628.429975108
230336.2873142131	7209825.741771783
234622.88481422624	7173356.759448956
238989.25662310526	7136209.083159678
243436.8873543108	7098370.082293768
247967.289250216	7059826.891183203
252582.00269627848	7023010.145111553
257282.59674479323	6991263.139321496
262070.66964838552	6958925.316351738
266947.8494034318	6925985.680994047
271915.7943036019	6892433.033417466
276976.1935036891	6858255.965360305
282130.76759394706	6823442.856251168
287381.2691851069	6787981.869257847
292729.4835042813	6751860.9472626895
298177.22900196735	6715067.808763006
303726.3579703311	6677589.943695272
309378.75717301364	6639414.609181546
315136.34848664823	6600528.825196752
321001.08955431683	6567756.107559119
326974.97445117676	6535965.7916112505
333060.03436245886	6503583.852474283
339258.33827409917	6470599.279939998
345571.9936762143	6437000.858898323
352003.1472796675	6402777.165524097
358553.9857459817	6367916.563392805
365226.7364308175	6332407.199524112
372023.6681413066	6296237.0003516935
378947.09190746717	6259393.667618094
385999.36176797637	6221864.67419322
393182.87557057705	6183637.259814917
400500.07578736113	6147477.4674435705
407953.45034524484	6116470.079441621
415545.53347188793	6084885.6386728585
423278.90655735444	6052713.406087114
431156.19903182285	6019942.442778643
439180.0892596086	5986561.606266833
447353.3054498463	5952559.546707588
455678.6265841068	5917924.703034287
464158.8833612772	5882645.299026908
472796.9591600391	5846709.339307942
481595.79101923504	5810104.6052638935
490558.37063650455	5772818.65089077
499687.7453854889	5734838.798562332
508987.0193519675	5703436.372211367
518459.3543892913	5672875.978464124
528107.971193433	5641746.850589215
537936.1503980698	5610038.404347745
547947.2336900292	5577739.858526335
558144.6249454955	5544840.231271408
568531.7913873753	5511328.336355191
579112.2647641759	5477192.779372337
589889.6425508494	5442421.953865663
600867.5891719692	5407004.037379842
612049.837247669	5370926.987441658
623440.1888627863	5334178.537465391
635042.5168595961	5299786.169105446
646860.7661546321	5270451.738067291
658898.9550799957	5240571.388276083
671161.1767496272	5210134.960090949
683651.6004510238	5179132.10479834
696374.4730628222	5147552.28109342
709334.1204987989	5115384.751495856
722534.9491787221	5082618.578698979
735981.4475265755	5049242.621851
749678.1874966878	5015245.532766954
763629.8261282243	4980615.752070249
777841.1071286482	4945341.505262315
792316.8624866261	4909410.798719157
807062.0141149492	4880289.740153981
822081.575524054	4851829.96058565
837380.6535266489	4822840.539676954
852964.4499741016	4793311.620712423
868838.2635251193	4763233.163541438
885007.4914473438	4732594.941164474
901477.6314524917	4701386.536255799
918254.2835656281	4669597.337621477
935343.1520292377	4637216.536591448
952750.0472427299	4604233.123344459
970480.8877380306	4570635.883164624
988541.7021919573	4536413.39262827
1006938.6314760271	4504738.901676739
1025677.9307444209	4477832.270330984
1044765.9715608053	4450424.901997557
1064209.2440647245	4422507.477875922
1084014.359178331	4394070.505741066
1104188.0508541602	4365104.316716059
1124737.1783647507	4335599.061984527
1145668.7286348727	4305544.709441942
1166989.8186171474	4274931.040284615
1188707.6977119034	4243747.645535172
1210829.7502320393	4211983.922503402
1233363.4979137746	4179629.071181222
1256316.6024741214	4146672.0905705607
1279696.8682159416	4120483.062411637
1303512.2446815087	4094750.9632676668
1327770.829355429	4068539.9853801564
1352480.8704178738	4041841.2167342054
1377650.769549055	4014645.5794607955
1403289.084785873	3986943.8267502305
1429404.533431761	3958726.539708103
1456005.9950206485	3929984.1241527805
1483102.514336103	3900706.80735328
1510703.3044866556	3870884.634706428
1538817.7500383465	3840507.4663522
1567455.410205595	3809564.9737260435
1596626.022101425	3781245.3028837973
1626339.5040481905	3757241.0504193115
1656605.9589499151	3732790.0747319926
1687435.6777273756	3707884.0622266554
1718839.1428171454	3682514.544590689
1750827.0317357269	3656672.895914737
1783410.220710006	3630350.3297598213
1816599.7883753285	3603537.8961698147
1850407.019542302	3576226.4786284054
1884843.4090337954	3548406.7909593503
1919920.6655932867	3520069.374169083
1955650.715865947	3491204.593230576
1992045.7084538713	3461802.633807281
2029118.0180466783	3438874.60990384
2066880.2496290822	3416199.3755382434
2105345.242766708	3393102.151202774
2144526.0759716653	3369575.083592295
2184436.0711494284	3345610.173250309
2225088.7981283693	3321199.2718490902
2266498.079273693	3296334.0794191314
2308677.994187172	3271006.1415270884
2351642.884494346	3245206.84640118
2395407.358720879	3218927.4220030694
2439986.29725955	3192158.9330453114
2485394.857429798	3164892.2779532303
2531648.478631358	3140211.4041906805
2578762.8875937983	3119294.927885986
2626754.1037238385	3097989.192398193
2675638.4445520453	3076286.953547676
2725432.531281028	3054180.8323393855
2776153.2944368036	3031663.312453918
2827817.979625338	3008726.737691896
2880444.1533962977	2985363.3093707534
2934049.709215787	2961565.0836731293
2988652.873550383	2937323.968945861
3044272.2120643063	2912631.722948746
3100926.6359319235	2887479.9500520965
3158635.408267819	2861860.0983821116
3217418.1506763715	2842231.270498642
3277294.849923382	2822672.322686457
3338285.8647317644	2802749.3795274124
3400411.9327037027	2782455.6670061755
3463694.1773717343	2761784.2850418165
3528154.1153808828	2740728.205141745
3593813.6638046256	2719280.2680119146
3660695.147596906	2697433.181122601
3728821.30718283	2675179.5162288696
3798215.306190736	2652511.706844867
3868900.7393279755	2629422.0456711682
3940901.6404034477	2605902.6819741824
4014242.490499326	2584842.696952773
4088948.226294856	2566964.457366076
4165044.248545185	2548753.5006985767
4242556.430717777	2530203.635028796
4321511.127789762	2511308.55320253
4401935.1852088785	2492061.8306883625
4483855.948021181	2472456.923393267
4567301.270168747	2452487.165437513
4652299.523960189	2432145.76688823
4738879.609717651	2411425.8114507357
4827070.965603188	2390320.2541169226
4916903.577628021	2368821.9187698956
5008407.989848212	2346923.4957439844
5101615.314749833	2330420.183422899
5196557.243827657	2313837.9099273253
5293266.058360566	2296947.0375004243
5391774.640387494	2279741.8230635785
5492116.483887789	2262216.4166584904
5594325.706169377	2244364.8594581527
5698437.0594691355	2226181.081740767
5804485.942768984	2207658.900825981
5912508.413831869	2188792.0189727144
6022541.201461928	2169574.021237842
6134621.717992506	2149998.373295069
6248788.072006888	2130058.4192131665
6365079.081295578	2112390.7703977134
6483534.286054714	2097343.0289574005
6604193.962330305	2082015.2464884173
6727099.135712336	2066402.2113795744
6852291.595284057	2050498.6150307043
6979813.907830667	2034299.0500476875
7109709.432312423	2017798.0084038887
7242022.334607315	2000989.8795673433
7376797.60252773	1983868.9485931485
7514081.061116962	1966429.3941802953
7653919.388230155	1948665.2866923723
7796360.130405221	1930570.5861414343
7941451.71902934	1912139.1401343178
8089243.486805938	1898461.379571929
8239785.684528512	1884594.18547172
8393129.498166373	1870468.9205297187
8549327.066268368	1856080.7820036514
8708431.497690724	1841424.8777713834
8870496.889654402	1826496.2246675643
9035578.34613892	1811289.746789284
9203731.99661823	1795800.273770214
9375015.01514529	1780022.539022634
9549485.639791967	1763951.1779467266
9727203.192450536	1747580.7261065578
9908228.099003786	1730905.6173721137
10092621.909870483	1716282.0104063288
10280447.320933098	1703769.9597117263
10471768.194855202	1691025.0576246982
10666649.582795387	1678042.9707412084
10865157.746525371	1664819.2850118373
11067360.180959744	1651349.504240952
11273325.63710487	1637629.0485579588
11483124.14543511	1623653.2528600872
11696827.039703846	1609417.3652262131
11914506.981197748	1594916.545301151
12136237.983442418	1580145.8626498808
12362095.437367693	1565100.295081152
12592156.13694151	1549828.5760136757
12826498.3052806	1538566.1589784308
13065201.621247198	1527094.1464457917
13308347.24654076	1515408.637807888
13556017.853293689	1503505.6598658748
13808297.652180923	1491381.1654789976
14065272.421052363	1479031.0321885264
14327029.534098294	1466451.0608160698
14593657.991557576	1453636.9740358135
14865248.449978571	1440584.414920184
15141893.25304352	1427288.9454584424
15423686.462966273	1413746.045047714
15710723.892474487	1399951.1089559367
16003103.137387017	1387974.6330036218
16300923.609797413	1377670.2104974391
16604286.571875297	1367174.0209350572
16913295.17029647	1356482.49549893
17228054.471313924	1345591.9989552095
17548671.49648152	1334498.8284177263
17875255.259042352	1323199.2120889726
18207916.800994623	1311689.3079776429
18546769.230846975	1299965.2025923226
18891927.762076646	1288022.9096108552
19243509.75230332	1275858.3685249488
19601634.743191857	1263467.4432595656
19966424.501097932	1250980.3062008524
20338003.0584698	1241741.9875258063
20716496.75602067	1232331.7421682617
21102034.285685964	1222746.3705434036
